Cell1 Blank,,Er,,Gd,,Lu,,La,,Y,,Dy,,Dy,,Tb_new,,Tb_new1,,
Wavelength (nm),Abs,Wavelength (nm),Abs,Wavelength (nm),Abs,Wavelength (nm),Abs,Wavelength (nm),Abs,Wavelength (nm),Abs,Wavelength (nm),Abs,Wavelength (nm),Abs,Wavelength (nm),Abs,Wavelength (nm),Abs,
600,-0.01007382106,600,-0.0003732705081,600,-0.0001201978012,600,-0.0004452174471,600,0.0001709069038,600,0.00438760221,600,0.004306574818,600,0.004535002168,600,0.0003298866213,600,0.0003387464385,
599,-0.009595631622,599,-0.0001093803294,599,-7.319934957E-5,599,-0.0004172366462,599,0.0001903553493,599,0.0044300179,599,0.004434515722,599,0.004701292142,599,0.0004628546885,599,0.00026289979,
598,-0.009544279426,598,-0.0001339651062,598,-0.0001118647488,598,-0.0005312174326,598,6.321813271E-5,598,0.004420368001,598,0.004289085045,598,0.004772526678,598,0.000257408683,598,0.0004876547027,
597,-0.009750007652,597,-9.167841927E-5,597,-2.873247468E-5,597,-0.0004073575838,597,0.0002604391484,597,0.004630147945,597,0.004517320078,597,0.00483715022,597,0.0006292776088,597,0.0005488962634,
596,-0.009790401906,596,-4.203677963E-5,596,-5.295946175E-5,596,-0.0004483205848,596,0.0002019057138,596,0.004482480697,596,0.004482742399,596,0.004800348543,596,0.0004496130568,596,0.0005300278426,
595,-0.009895371273,595,5.2085692E-5,595,9.221561049E-5,595,-0.0004980709637,595,0.0002412465547,595,0.004551664926,595,0.004684702028,595,0.004954512697,595,0.0004656274687,595,0.0006163679063,
594,-0.01001407579,594,0.0001366217475,594,-1.796449033E-5,594,-0.0004099437501,594,0.0002254994324,594,0.004606078379,594,0.004723509308,594,0.004943018313,594,0.0006206970429,594,0.0006969432579,
593,-0.01008626446,593,-0.0001115024352,593,1.123465518E-5,593,-0.0004551991005,593,0.0001688352204,593,0.004526030272,593,0.004716024734,593,0.004960508551,593,0.0004467885883,593,0.0006819055416,
592,-0.01035270654,592,0.0002536530083,592,0.0002439402015,592,-0.0004111333692,592,0.0003798614489,592,0.004780770745,592,0.004928042181,592,0.005251450464,592,0.0004559617373,592,0.0008979281993,
591,-0.01035477966,591,0.0001026241007,591,6.091395335E-5,591,-0.0003673735482,591,0.000389991852,591,0.004693703726,591,0.004931550473,591,0.005221818108,591,0.0004945740802,591,0.0006887502386,
590,-0.01048695296,590,1.374566637E-5,590,6.948349619E-5,590,-0.0003274375631,590,0.0004372528347,590,0.00470453687,590,0.004908380564,590,0.00519795157,590,0.0005105123855,590,0.0006740757381,
589,-0.01067692973,589,8.645999515E-6,589,9.83001446E-5,589,-0.000357234705,589,0.0004432385613,589,0.004713251255,589,0.005083823111,589,0.00544891879,589,0.0006019551074,589,0.0008865149575,
588,-0.01064106263,588,-0.0001981895184,588,0.0001900445786,588,-0.0003049331717,588,0.0003991379053,588,0.00463433424,588,0.00489348406,588,0.005331317894,588,0.0005026079598,588,0.0006687350105,
587,-0.01064944919,587,-0.000464042736,587,6.503042096E-5,587,-0.0003608557454,587,0.000263469643,587,0.00453099981,587,0.004981900565,587,0.005254201591,587,0.0006221746444,587,0.000448576553,
586,-0.01077592745,586,-0.0003583727521,586,3.743272464E-5,586,-0.0004123747349,586,0.0002988268679,586,0.004580728244,586,0.004963179119,586,0.005403468385,586,0.0004213949724,586,0.0005016231444,
585,-0.01086470298,585,-0.0002409315202,585,8.160023572E-5,585,-0.0003685115662,585,0.00032382473,585,0.00475564599,585,0.005081073381,585,0.005451304372,585,0.0005880871322,585,0.0005681024631,
584,-0.01093644742,584,-0.0002020188695,584,0.0003121675109,584,-0.0002149039065,584,0.0003864163882,584,0.004719950259,584,0.005309567787,584,0.005567521788,584,0.000641721068,584,0.0005494664656,
583,-0.01095966902,583,-0.0002012426557,583,8.851314487E-5,583,-0.0003508719674,583,0.000314473029,583,0.004704851191,583,0.005039903335,583,0.005544789601,583,0.0005333712325,583,0.0005333712325,
582,-0.01101928391,582,0.0001482742518,582,7.354826084E-5,582,-0.000373632618,582,0.0004470736312,582,0.004733846057,582,0.005355820991,582,0.005709027406,582,0.0004967509885,582,0.0007586033316,
581,-0.01111997012,581,0.0001720722357,581,0.000187247686,581,-0.0003264546394,581,0.0005985593307,581,0.004997507203,581,0.005438145716,581,0.005817128811,581,0.0007313764072,581,0.0008597209235,
580,-0.01108378638,580,-1.232154591E-5,580,0.0001771738171,580,-0.0004482688673,580,0.0004420206824,580,0.004679730628,580,0.005382448435,580,0.005797610153,580,0.0005577087286,580,0.0007072106819,
579,-0.01115095336,579,0.000192453037,579,0.0001830005785,579,-0.0002679923782,579,0.0004628546885,579,0.004659975413,579,0.005420242902,579,0.005945961922,579,0.0006645609392,579,0.0007557249628,
578,-0.01123021822,578,0.0004904016969,578,0.000322089094,578,-0.0003278514487,578,0.0006134127034,578,0.004938803148,578,0.005772898905,578,0.006016166881,578,0.0006484095939,578,0.0009638196207,
577,-0.01131582353,577,0.0004307230702,577,0.0005254404969,577,-0.0001161606924,577,0.0006676461198,577,0.004978182726,577,0.005708162207,577,0.006029894575,577,0.0007931969594,577,0.0009629635024,
576,-0.01117719151,576,0.0002443287231,576,0.000138227173,576,-0.0003447677591,576,0.00050455163,576,0.004809142556,576,0.005466036033,576,0.005970446859,576,0.0006557204179,576,0.0005822549574,
575,-0.01116144843,575,0.0002474626817,575,0.0002684686915,575,-0.0002605417685,575,0.000495584798,575,0.004939352628,575,0.005709735677,575,0.006166431122,575,0.0005032558111,575,0.0007061216747,
574,-0.01132419705,574,0.0003517515142,574,0.0005060029216,574,-6.098306039E-5,574,0.0007479975466,574,0.005162062123,574,0.00610145228,574,0.006305689923,574,0.000817730499,574,0.0007224826259,
573,-0.01113581471,573,-0.0001020822601,573,0.0002775344765,573,-0.0003123830247,573,0.0005256219301,573,0.004862227477,573,0.005760963075,573,0.006226955913,573,0.0007047475083,573,0.0004515565233,
572,-0.01110498235,572,-6.305363786E-5,572,0.0001855384762,572,-0.0004065817338,572,0.0004324850452,572,0.00490099797,572,0.005858241115,572,0.006288066506,572,0.0005285246298,572,0.0005840694066,
571,-0.01108272653,571,-2.852540092E-5,571,0.0001493618329,571,-0.0003733222547,571,0.0006434839452,571,0.00494932849,571,0.005879861303,571,0.00622136239,571,0.0005300797056,571,0.0005585899926,
570,-0.01115549449,570,3.789870971E-5,570,0.0001981505193,570,-0.0003017255513,570,0.0006603091606,570,0.005113786552,570,0.005928090774,570,0.006210386287,570,0.0005428831792,570,0.0005171211087,
569,-0.01124182157,569,2.381515515E-6,569,0.0003043184988,569,-0.0001709172939,569,0.0007033733418,569,0.005117401015,569,0.006168610416,569,0.006352154072,569,0.0005486370646,569,0.000756036141,
568,-0.01084309071,568,-2.484981815E-5,568,0.0002996298717,568,-0.000234825784,568,0.000795479049,568,0.005266856868,568,0.006285124924,568,0.006740349345,568,0.0006992767449,568,0.0008953861543,
567,-0.01067480817,567,0.0001148453375,567,0.0003247314307,567,-0.0001773862023,567,0.0008780329954,567,0.005240393803,567,0.006251640618,567,0.006608520634,567,0.0006484354963,567,0.0009422092699,
566,-0.01067930367,566,0.0002702300262,566,0.0002962623839,566,-0.0001562713587,566,0.0007701687864,566,0.005135317333,566,0.006324206479,566,0.006670684088,566,0.0007669273182,566,0.0007220418192,
565,-0.01060099993,565,0.0001214739532,565,0.0003139549226,565,-0.0002926199231,565,0.0007747587515,565,0.005117453635,565,0.006417906377,565,0.006718896329,565,0.0005641108146,565,0.0007099849754,
564,-0.01090226788,564,0.0006164975348,564,0.0005266067456,564,2.762120675E-5,564,0.001136170467,564,0.005461763125,564,0.006847839803,564,0.007138338406,564,0.0008768138941,564,0.001204667846,
563,-0.01078355312,563,0.0005258551682,563,0.0006570685073,563,0.0001180819527,563,0.0009764024289,563,0.005382972304,563,0.006566759199,563,0.006917349063,563,0.00084522221,563,0.0009037646232,
562,-0.01085823961,562,0.0005571385263,562,0.0006821907009,562,1.604959652E-5,562,0.001253341557,562,0.005435943604,562,0.006824067328,562,0.007181260269,562,0.0009192510042,562,0.0009031679947,
561,-0.01088187005,561,0.0005933750654,561,0.0007332433015,561,5.775543468E-5,561,0.001118055079,561,0.005460374057,561,0.007057480048,561,0.00728596421,561,0.0008271709085,561,0.001099006156,
560,-0.01084995829,560,0.0006843945011,560,0.0007048771367,560,0.0001228721812,560,0.00115052308,560,0.005630008411,560,0.007002337836,560,0.007410415448,560,0.0008695771685,560,0.0009119876777,
559,-0.01101963781,559,0.0006207229453,559,0.0009891671361,559,0.0002943196159,559,0.00136207894,559,0.005715768319,559,0.007146496326,559,0.007575070485,559,0.001014775597,559,0.000917383295,
558,-0.01079188567,558,0.000291185308,558,0.000614734774,558,8.828012506E-5,558,0.001340812305,558,0.005471148062,558,0.007250823081,558,0.007439986337,558,0.0007778706495,558,0.001008107443,
557,-0.01080249064,557,0.0004789991654,557,0.0007007027743,557,0.0001549551671,557,0.001333931345,557,0.005576987285,557,0.007156469859,557,0.007477460429,557,0.0008671909454,557,0.0009599021869,
556,-0.01100227423,556,0.0004866699164,556,0.0008645711932,556,0.0003991120029,556,0.001593794907,556,0.005738142412,556,0.007396775763,556,0.007695731241,556,0.001136092586,556,0.001013685833,
555,-0.01099677198,555,0.0004075327597,555,0.0008588131168,555,0.0002925581939,555,0.00141092611,555,0.005733001046,555,0.007484834176,555,0.008008867502,555,0.001036182046,555,0.001093919738,
554,-0.01087858807,554,0.0002172116947,554,0.0007066921098,554,5.045468424E-5,554,0.001571815345,554,0.005906100851,554,0.007498424035,554,0.007972850464,554,0.0008518101531,554,0.001225278829,
553,-0.01095164288,553,0.0004534740874,553,0.0008110134513,553,0.0002898642269,553,0.001551109948,553,0.005972100422,553,0.007745981216,553,0.00788500905,553,0.001079309382,553,0.0009388367762,
552,-0.01100928988,552,0.0005552464281,552,0.0008670871612,552,0.0002426969877,552,0.001719691791,552,0.005886761937,552,0.007715809625,552,0.008130281232,552,0.001147771953,552,0.001095347106,
551,-0.01087540668,551,0.0003533318522,551,0.000627462985,551,0.0001562499237,551,0.001486947644,551,0.005759310443,551,0.007727614604,551,0.008098342456,551,0.0008142293664,551,0.001088184537,
550,-0.01074112952,550,0.0003947850782,550,0.0005631258828,550,-8.231660104E-6,550,0.001497181715,550,0.005750050768,550,0.007661294658,550,0.007932539098,550,0.0007854429423,550,0.0007452748832,
549,-0.01087172143,549,0.0005749194534,549,0.0007361474563,549,0.0001232605864,549,0.001604473218,549,0.00565182697,549,0.007753175218,549,0.008037820458,549,0.0008946338785,549,0.0008172636735,
548,-0.01086308714,548,0.000517302542,548,0.0005994147505,548,6.523313004E-6,548,0.001730763004,548,0.005837408826,548,0.007937337272,548,0.008333233185,548,0.0007846131339,548,0.0007998877554,
547,-0.01109231543,547,0.0007610926987,547,0.000744756253,547,0.0003879450378,547,0.001907864469,547,0.00616010325,547,0.008298693225,547,0.00850296393,547,0.0009705390548,547,0.001011117129,
546,-0.01128258184,546,0.001116004772,546,0.001192519674,546,0.0006071135867,546,0.002268945798,546,0.006181344856,546,0.008314709179,546,0.008747978136,546,0.001306149061,546,0.001090312493,
545,-0.0113536017,545,0.001088106656,545,0.00106501102,545,0.0005961486604,545,0.002458189614,545,0.006184863392,545,0.008698905818,545,0.008846032433,545,0.001218269928,545,0.00124056905,
544,-0.01148587558,544,0.001276317518,544,0.001208509668,544,0.0005636701826,544,0.002695466392,544,0.006393028423,544,0.008785722777,544,0.009369013831,544,0.001286936109,544,0.001384281553,
543,-0.01137962565,543,0.001257547294,543,0.0011765823,543,0.0005324382219,543,0.002585769631,543,0.006406478584,543,0.008824845776,543,0.009114264511,543,0.001151950564,543,0.001332061831,
542,-0.0115043791,542,0.001247266773,542,0.001308252104,542,0.0005363777163,542,0.002671113005,542,0.006383597385,542,0.00892418623,542,0.009284645319,542,0.001163967769,542,0.001408147393,
541,-0.01162960101,541,0.001141127665,541,0.001423314097,541,0.0006333735655,541,0.002902616514,541,0.006615459453,541,0.009319025092,541,0.009582601488,541,0.001336501911,541,0.001585429069,
540,-0.01167138387,540,0.00122071011,540,0.001292855712,540,0.0007124222466,540,0.003035749076,540,0.006630835589,540,0.009321247227,540,0.009659166448,540,0.001281432109,540,0.001466272166,
539,-0.01169255096,539,0.001201345236,539,0.001619932707,539,0.0007580847014,539,0.003067265963,539,0.006609098986,539,0.009585008956,539,0.009795313701,539,0.001453649253,539,0.001516663702,
538,-0.01161085069,538,0.0009508481016,538,0.001396071399,538,0.0005664695054,538,0.003128820099,538,0.00639174087,538,0.009600332007,538,0.009761716239,538,0.001339176437,538,0.001381165348,
537,-0.01187051553,537,0.001222189749,537,0.001728917821,537,0.0009088229272,537,0.003498303238,537,0.006672103424,537,0.01000206452,537,0.01025285572,537,0.001452714205,537,0.00164830673,
536,-0.01180769224,536,0.001449181931,536,0.001678579603,536,0.0008026367868,536,0.003470773576,536,0.006569702644,536,0.009845012799,536,0.01018678583,536,0.001364597818,536,0.001320844865,
535,-0.01185640972,535,0.001651996514,535,0.001601589262,535,0.0006730646128,535,0.003635168774,535,0.00670548901,535,0.01032641158,535,0.01049801055,535,0.001304876758,535,0.001365117147,
534,-0.01210011914,534,0.001707321266,534,0.001555760158,534,0.0009487726493,534,0.004193987232,534,0.006984949578,534,0.01053259335,534,0.01090654731,534,0.001681100228,534,0.001498662401,
533,-0.01211235393,533,0.001658102963,533,0.00176961883,533,0.001003073878,533,0.004311934114,533,0.006855886895,533,0.01069342252,533,0.01096163038,533,0.00148089556,533,0.001686193631,
532,-0.0120018255,532,0.001497129793,532,0.001714779879,532,0.0008259519236,532,0.004221536685,532,0.006704384927,532,0.01080454979,532,0.01109096315,532,0.001478739665,532,0.001472116215,
531,-0.0119906459,531,0.001371245482,531,0.001522144768,531,0.0008349515265,531,0.004407266621,531,0.006789121777,531,0.01113255136,531,0.01127274707,531,0.001520482241,531,0.001565502374,
530,-0.01194823906,530,0.00121987937,530,0.001577089308,530,0.0007814493147,530,0.004440975375,530,0.006833534222,530,0.01134230476,530,0.01150824502,530,0.001471285126,530,0.0015159623,
529,-0.01182986051,529,0.001045185956,529,0.001679307199,529,0.0006057915743,529,0.004396937788,529,0.006544552743,529,0.01133712288,529,0.01137025841,529,0.00131578173,529,0.001358625363,
528,-0.01177393366,528,0.0009327664156,528,0.001439779997,528,0.0006319218082,528,0.004379940685,528,0.006612673402,528,0.01146258134,528,0.011656221,528,0.00124267186,528,0.001361741335,
527,-0.01179116592,527,0.000666660897,527,0.001432040473,527,0.0006496539572,527,0.004770877771,527,0.006776395719,527,0.011757195,527,0.01204522233,527,0.001190105686,527,0.001456558239,
526,-0.01202398445,526,0.001168977236,526,0.00187934353,526,0.0009264107211,526,0.005065909121,526,0.007013018243,526,0.01227155328,526,0.0124418987,526,0.00160273246,526,0.001403836301,
525,-0.01222909521,525,0.001287689083,525,0.002141926903,525,0.001054319902,525,0.005333702546,525,0.007200262044,525,0.01272819471,525,0.01289943885,525,0.001892862841,525,0.001790308743,
524,-0.01213168725,524,0.001477986341,524,0.001974975457,524,0.001008989639,524,0.005616241135,524,0.007088000886,524,0.01293010637,524,0.0131633291,524,0.001849108608,524,0.001886519138,
523,-0.01233559009,523,0.001656647772,523,0.002394674113,523,0.001281432109,523,0.005860838573,523,0.007406755351,523,0.01351584215,523,0.01369111147,523,0.001866214559,523,0.001921306713,
522,-0.01235103793,522,0.00189213478,522,0.002526817843,522,0.001302773715,522,0.006066826638,522,0.007468137424,522,0.01375942677,522,0.01405129861,522,0.002072891453,522,0.002138779266,
521,-0.01226186194,521,0.002080460312,521,0.002416643081,521,0.00132975087,521,0.006156795193,521,0.007213474251,521,0.01398200169,521,0.01422386803,521,0.001921072719,521,0.002141198609,
520,-0.01225149352,520,0.001901104581,520,0.002395949559,520,0.001295815455,520,0.006420848891,520,0.007616797462,520,0.01443399582,520,0.0145721836,520,0.002092451323,520,0.00221542269,
519,-0.01222471613,519,0.002120648045,519,0.002663116902,519,0.001389994635,519,0.006327883806,519,0.00743155973,519,0.01450149249,519,0.01489106938,519,0.002039574087,519,0.002280109096,
518,-0.01221525297,518,0.002077807439,518,0.00263689016,518,0.001342785661,518,0.006673733238,518,0.00759530114,518,0.01515464578,518,0.01533494797,518,0.002397303004,518,0.002255778993,
517,-0.01211245451,517,0.001922606723,517,0.002665825654,517,0.001225382672,517,0.006758464035,517,0.007607419044,517,0.01551049668,517,0.01556270476,517,0.002063476015,517,0.002384861233,
516,-0.01212851517,516,0.001604966936,516,0.002679265337,516,0.001396019477,516,0.007064163219,516,0.007746192161,516,0.01567441411,516,0.01579479687,516,0.002080096165,516,0.002155012218,
515,-0.01238611061,515,0.001853866037,515,0.003203447908,515,0.001622401061,515,0.007280409802,515,0.007858360186,515,0.01632541232,515,0.0165316388,515,0.002539081499,515,0.002371534705,
514,-0.01224505063,514,0.001693911734,514,0.00288025802,514,0.001416457817,514,0.00742352847,514,0.007966786623,514,0.01671275496,514,0.01667482592,514,0.00251721032,514,0.002559886081,
513,-0.01213657018,513,0.001520456281,513,0.002929067705,513,0.001497779158,513,0.007346329279,513,0.007816583849,513,0.01691577584,513,0.01706320792,513,0.002356048673,513,0.00246209465,
512,-0.01222431287,512,0.001598861185,512,0.003085853765,512,0.001577089308,512,0.007570355665,512,0.007963068783,512,0.01733098924,512,0.01731019281,512,0.002544679679,512,0.002369738882,
511,-0.01229548082,511,0.001813027076,511,0.003177240724,511,0.001712103141,511,0.007783006877,511,0.008104988374,511,0.01757507958,511,0.01777213812,511,0.002714220667,511,0.002629858442,
510,-0.01218072139,510,0.00173211447,510,0.003139040899,510,0.001547498978,510,0.007934912108,510,0.008293231018,510,0.01791047491,510,0.0180399511,510,0.002582696965,510,0.002715314738,
509,-0.01211965457,509,0.001826544292,509,0.003231586656,509,0.001516533783,509,0.007780187298,509,0.008029276505,509,0.01825128682,509,0.01813737303,509,0.002419922967,509,0.002774500521,
508,-0.0121237319,508,0.002107772045,508,0.003345307196,508,0.0016876749,508,0.007857885212,508,0.008109155111,508,0.0185475722,508,0.01854940876,508,0.002848363714,508,0.002740399912,
507,-0.01231284346,507,0.002202908043,507,0.003386186203,507,0.001727202558,507,0.008211682551,507,0.008405276574,507,0.0190166235,507,0.01903869212,507,0.002873013727,507,0.002982235746,
506,-0.01218681224,506,0.002060224768,506,0.003525443142,506,0.001680008834,506,0.008213107474,506,0.008335396647,506,0.01916060597,506,0.01907141879,506,0.002658481011,506,0.002861340065,
505,-0.01215464436,505,0.002100800863,505,0.003479671665,505,0.001620530267,505,0.008247138932,505,0.008031940088,505,0.01920922473,505,0.01935586892,505,0.002938319463,505,0.002688772278,
504,-0.01218726486,504,0.002074946184,504,0.00351964985,504,0.001673772233,504,0.008351651952,504,0.00823352579,504,0.01964047737,504,0.01984736323,504,0.002921275562,504,0.002925445326,
503,-0.01231641695,503,0.002123587532,503,0.003525965149,503,0.001807438326,503,0.00848490838,503,0.008540212177,503,0.02013731003,503,0.02024971507,503,0.002967483597,503,0.00300136744,
502,-0.01213470753,502,0.001772036077,502,0.00345866615,502,0.001568516018,502,0.008232233115,502,0.008101928979,502,0.01994944736,502,0.02011879161,502,0.002920858562,502,0.002819520421,
501,-0.01232260652,501,0.002111361595,501,0.003818898229,501,0.001803409308,501,0.008471287787,501,0.008378252387,501,0.02059567906,501,0.02040468715,501,0.003128142329,501,0.003194842255,
500,-0.01229004562,500,0.001752048847,500,0.003528209403,500,0.001808036235,500,0.008575853892,500,0.008472686633,500,0.02079549804,500,0.02060105279,500,0.003023393219,500,0.00320764631,
499,-0.01223312225,499,0.001838658238,499,0.003520145547,499,0.00166935462,499,0.008415833116,499,0.00840134453,499,0.02060743235,499,0.02072989568,499,0.002807014389,499,0.002950412221,
498,-0.01233015489,498,0.001985845389,498,0.003704922972,498,0.001795689226,498,0.0085819792,498,0.008354607038,498,0.02098926902,498,0.02105121687,498,0.003186158836,498,0.003364741802,
497,-0.0123671405,497,0.002137738746,497,0.003674508538,497,0.001670653932,497,0.008611472324,497,0.008551986888,497,0.02140869759,497,0.02124045417,497,0.003254432697,497,0.00337368995,
496,-0.01237363182,496,0.002160631353,496,0.003695968073,496,0.001654179185,496,0.008800172247,496,0.008473980241,496,0.02128870785,496,0.02144725993,496,0.003035879461,496,0.003167540533,
495,-0.01247460768,495,0.002348032314,495,0.003783644876,495,0.001699083252,495,0.008634787984,495,0.008323812857,495,0.02164532244,495,0.02143151499,495,0.003302189056,495,0.003374159336,
494,-0.01244512759,494,0.002512705978,494,0.003667955985,494,0.001745629241,494,0.008744068444,494,0.008561174385,494,0.02189084329,494,0.02179442532,494,0.003402648261,494,0.003361481009,
493,-0.01251776796,493,0.002531608567,493,0.003508950351,493,0.001744355657,493,0.008878106251,493,0.008684248663,493,0.02194839902,493,0.02205040678,493,0.003287921427,493,0.00340053509,
492,-0.01257002726,492,0.002316359663,492,0.003764557187,492,0.001852020272,492,0.008805323392,492,0.008692382835,492,0.0220975522,492,0.02202646807,492,0.003374628955,492,0.003364611417,
491,-0.01257002726,491,0.002503593452,491,0.00383004942,491,0.001824464765,491,0.008726346307,491,0.008695657365,491,0.02232659422,491,0.02219923958,491,0.003557752352,491,0.003492771182,
490,-0.01260503102,490,0.002325181849,490,0.003551488742,490,0.001692976221,490,0.008941361681,490,0.008686018176,490,0.02256726474,490,0.02243103459,490,0.003535934258,490,0.00359564973,
489,-0.01250182185,489,0.002090084367,489,0.003511351068,489,0.001688064658,489,0.008763667196,489,0.008624172769,489,0.02231531218,489,0.02234065719,489,0.003399308771,489,0.003451334313,
488,-0.01261292677,488,0.002224425087,488,0.003704270348,488,0.001713272533,488,0.008764010854,488,0.008664231747,488,0.02259431407,488,0.0226420369,488,0.003580328543,488,0.003544468433,
487,-0.01251429692,487,0.002227261197,487,0.003440740751,487,0.001576076145,487,0.008745177649,487,0.008499057032,487,0.02297651209,487,0.02274363488,487,0.00350057357,487,0.003560205689,
486,-0.01245896239,486,0.001982568763,486,0.003378959605,486,0.001459804829,486,0.00868173968,486,0.008549029939,486,0.02293868735,486,0.02290233783,486,0.003356654895,486,0.003308527404,
485,-0.0126561746,485,0.002188676503,485,0.00376186776,485,0.001645916142,485,0.008749905974,485,0.008587338962,485,0.02304483019,485,0.0229774937,485,0.003628642764,485,0.003465346061,
484,-0.01284580771,484,0.002663846361,484,0.003937056754,484,0.0017327643,484,0.009027884342,484,0.008846772835,484,0.02351742797,484,0.02336923592,484,0.003808530979,484,0.003781529842,
483,-0.0128242448,483,0.002389051719,483,0.003475157311,483,0.001690507401,483,0.009014140815,483,0.008682532236,483,0.02361146919,483,0.02360788733,483,0.003649630351,483,0.003775419667,
482,-0.01276085526,482,0.002301942324,482,0.003518031677,482,0.001631157356,482,0.008818611503,482,0.008782897145,482,0.02344613895,482,0.02323824354,482,0.003618984716,482,0.003515291726,
481,-0.01303601172,481,0.002698123222,481,0.00396741135,481,0.001873051981,481,0.008936076425,481,0.008900854737,481,0.02388878912,481,0.02379561774,481,0.003930239007,481,0.003844935214,
480,-0.01309303101,480,0.002592930803,480,0.003868649481,480,0.001888546976,480,0.00912512932,480,0.008834408596,480,0.02409743518,480,0.0238886252,480,0.003691660473,480,0.004029302392,
479,-0.01306434628,479,0.002267046133,479,0.003787509631,479,0.001747422502,479,0.008963558823,479,0.008825559169,479,0.02400208637,479,0.02413172275,479,0.003678580979,479,0.003942725249,
478,-0.01312703919,478,0.002285912167,478,0.003900879761,478,0.001826258376,478,0.008980603889,478,0.00879153423,478,0.02428209223,478,0.02398695797,478,0.0038795406,478,0.00379009475,
477,-0.0132601792,477,0.002283387817,477,0.003815372707,477,0.001868814346,477,0.00906478148,477,0.009044111706,477,0.02424193546,477,0.02428285778,477,0.003843498882,477,0.004025017377,
476,-0.01336837932,476,0.002058612416,476,0.003849166213,476,0.001762315282,476,0.009130919352,476,0.009008168243,476,0.02450144477,476,0.02438355424,476,0.003881838871,476,0.0040314449,
475,-0.0133457873,475,0.002315708902,475,0.003869067179,475,0.001969800796,475,0.008968235925,475,0.008926881477,475,0.02438108996,475,0.02432728931,475,0.003908846062,475,0.00391736161,
474,-0.01340663247,474,0.002540070796,474,0.003944449127,474,0.001869438333,474,0.008896362968,474,0.008845901117,474,0.02459695749,474,0.02444867045,474,0.003951894119,474,0.00377414003,
473,-0.01358103566,473,0.002650901908,473,0.003849296598,473,0.001869932283,473,0.008974710479,473,0.009198468179,473,0.02479942143,473,0.02470178157,473,0.003825113643,473,0.004004534334,
472,-0.01372647751,472,0.002512914361,472,0.004058748484,472,0.002207487123,472,0.009238024242,472,0.009200424887,472,0.02478747256,472,0.0246568732,472,0.003919215873,472,0.004117830191,
471,-0.0137291858,471,0.002616576618,471,0.004075419158,471,0.002025036141,471,0.008927277289,471,0.009024712257,471,0.02489853837,471,0.02464953065,471,0.004039674997,471,0.00410084473,
470,-0.0138700651,470,0.00284938002,470,0.004083598033,470,0.00195245666,470,0.009060473181,470,0.009395755827,470,0.02499139681,470,0.02483395673,470,0.004268615507,470,0.004206167534,
469,-0.01399375405,469,0.002907645889,469,0.004123840947,469,0.002099058125,469,0.009104589932,469,0.009467817843,469,0.02484009601,469,0.02501144074,469,0.004171771463,469,0.004173391964,
468,-0.01394186635,468,0.002775021596,468,0.004241428804,468,0.002110399306,468,0.008864050731,468,0.009297788143,468,0.02504749969,468,0.02459583431,468,0.004171614535,468,0.0041124993,
467,-0.01393850707,467,0.002704947488,467,0.004144956823,467,0.001920110662,467,0.008836654015,467,0.009382292628,467,0.02521514148,467,0.02496233396,467,0.004011719022,467,0.004090653267,
466,-0.01394121442,466,0.002566187643,466,0.00407500146,466,0.002200384391,466,0.008952962235,466,0.009456467815,466,0.02510989085,466,0.02502915449,466,0.004169079475,466,0.004332667217,
465,-0.01404012274,465,0.002588191535,465,0.004274131265,465,0.002221198753,465,0.008888833225,465,0.009346717037,465,0.02477793582,465,0.02480542473,465,0.004277059343,465,0.004131236579,
464,-0.01408914197,464,0.002911294345,464,0.004520092625,464,0.002250002464,464,0.008852981031,464,0.009614729322,464,0.02508745715,464,0.02474113181,464,0.004497859627,464,0.004365454894,
463,-0.01394728106,463,0.002927347552,463,0.004102726001,463,0.00219819881,463,0.008697268553,463,0.009904277511,463,0.02527184971,463,0.02532941662,463,0.004609243944,463,0.004527363926,
462,-0.01393750403,462,0.003001263132,462,0.004365376662,462,0.002292990219,462,0.008697400801,462,0.009607874788,462,0.02549362369,462,0.02519429103,462,0.004359048791,462,0.00470095221,
461,-0.0140395714,461,0.003253650153,461,0.004530581646,461,0.002553194063,461,0.008658474311,461,0.009390359744,461,0.0255626142,461,0.02528592385,461,0.004388125148,461,0.004428082611,
460,-0.01385622472,460,0.003259674879,460,0.004310627002,460,0.002266837982,460,0.008636794984,460,0.009740351699,460,0.02560569346,460,0.02542519383,460,0.004197646864,460,0.00427167397,
459,-0.01396984141,459,0.003310092259,459,0.004337791819,459,0.002403706312,459,0.008753075264,459,0.009795102291,459,0.02564743161,459,0.02551811188,459,0.00436908938,459,0.004448664375,
458,-0.0142223388,458,0.003471164964,458,0.004958623089,458,0.002784478478,458,0.008937899955,458,0.01003340259,458,0.02607952058,458,0.02594182827,458,0.004934064113,458,0.004579917062,
457,-0.01414717641,457,0.003530271119,457,0.004983524326,457,0.002961150138,457,0.008802074008,457,0.01016579755,457,0.02623372898,457,0.02607806399,457,0.004644014873,457,0.004509472754,
456,-0.01401871815,456,0.003444132628,456,0.004779043607,456,0.002871033503,456,0.0088477768,456,0.01023883559,456,0.02619905584,456,0.02614956722,456,0.004371076822,456,0.00458475668,
455,-0.01411595475,455,0.003466415918,455,0.005081989802,455,0.002990576439,455,0.008977405727,455,0.01043200959,455,0.02641618811,455,0.02629700676,455,0.00468412647,455,0.004553993233,
454,-0.01410227269,454,0.003835664131,454,0.00538711343,454,0.003306805855,454,0.008849493228,454,0.01044778619,454,0.02670612372,454,0.02644928358,454,0.004769490566,454,0.004735128488,
453,-0.01427038573,453,0.004289999604,453,0.005624684971,453,0.003371550702,453,0.009207934141,453,0.01085253339,453,0.02719526365,453,0.02688492462,453,0.004945008084,453,0.005197925027,
452,-0.01419583242,452,0.004483396187,452,0.005742470268,452,0.003480924061,452,0.009125235491,452,0.01092119981,452,0.0272339303,452,0.02696069144,452,0.004753709305,452,0.004944379907,
451,-0.01407170016,451,0.004569871817,451,0.005882616155,451,0.003650752828,451,0.008995720185,451,0.01088597625,451,0.02735546418,451,0.02738502063,451,0.005060854368,451,0.004635877907,
450,-0.01424087677,450,0.005159101915,450,0.006285046227,450,0.004007983021,450,0.009423081763,450,0.01126382127,450,0.02804656141,450,0.02781583369,450,0.004993893672,450,0.005071958993,
449,-0.0140602719,449,0.005290753208,449,0.005884400569,449,0.003970154095,449,0.009421362542,449,0.01144339237,449,0.02808273584,449,0.02778028883,449,0.005086939782,449,0.004991065245,
448,-0.01404979639,448,0.00482353894,448,0.006149128545,448,0.004354813136,448,0.009573868476,448,0.01136451866,448,0.02819713205,448,0.02816050686,448,0.005033775698,448,0.005055537913,
447,-0.01416777167,447,0.005274324212,447,0.006730069872,447,0.004645977169,447,0.009708585218,447,0.01193108968,447,0.02887360752,447,0.02842969261,447,0.005065699574,447,0.005211653188,
446,-0.01423115656,446,0.005406456068,446,0.007064794656,446,0.005027255043,446,0.00997083541,446,0.01222389191,446,0.02942444384,446,0.02902825736,446,0.005308912601,446,0.005493115634,
445,-0.01417503785,445,0.005637980532,445,0.007328453008,445,0.005449731369,445,0.009963366203,445,0.01230832748,445,0.02961575799,445,0.02920893207,445,0.00530854566,445,0.005467582494,
444,-0.01417989843,444,0.005910377949,444,0.0077655348,444,0.005678577349,444,0.01008617505,444,0.01252547093,444,0.02979060635,444,0.02959572151,444,0.005590805784,444,0.005610131193,
443,-0.01432248484,443,0.006542214192,443,0.008075319231,443,0.006032466888,443,0.0106370477,443,0.01315297652,443,0.03071443364,443,0.03037941828,443,0.00584593555,443,0.005953414831,
442,-0.01432258543,442,0.006856018212,442,0.008637190796,442,0.00631267624,442,0.01082049962,442,0.01356850658,442,0.03120688908,442,0.03095468506,442,0.005878995173,442,0.005969869904,
441,-0.014258462,441,0.007108708844,441,0.008859718218,441,0.006815678906,441,0.01082442701,441,0.01363121998,441,0.03162135556,441,0.03120382875,441,0.006154274568,441,0.005845489912,
440,-0.01415098459,440,0.007636687718,440,0.009249897674,440,0.007161680609,440,0.01104672346,440,0.01426161081,440,0.03227653354,440,0.03198126704,440,0.006103709806,440,0.006065803114,
439,-0.014212518,439,0.008023897186,439,0.009610494599,439,0.007709617261,439,0.01170530915,439,0.01477152668,439,0.03311402723,439,0.03269531578,439,0.006263484713,439,0.006370725576,
438,-0.0141639635,438,0.00838574674,438,0.01026210561,438,0.008366060443,438,0.01192135178,438,0.01523603406,438,0.03377918527,438,0.03338328376,438,0.006551227532,438,0.006531229708,
437,-0.0139644267,437,0.008458432741,437,0.0107466476,437,0.008720747195,437,0.01198138017,437,0.01562788151,437,0.03449913859,437,0.03402026743,437,0.006653308868,437,0.006317955442,
436,-0.01402784139,436,0.009094809182,436,0.01130417734,436,0.00893517863,436,0.01267539244,436,0.01615334861,436,0.03535764292,436,0.0348296091,436,0.006800927687,436,0.006698259618,
435,-0.0141189117,435,0.009291918017,435,0.01180802379,435,0.0096482886,435,0.01299862284,435,0.01651515439,435,0.0361430645,435,0.03557443246,435,0.007071135566,435,0.007020147983,
434,-0.01414707582,434,0.01024843007,434,0.01259288378,434,0.01029672287,434,0.01335836947,434,0.01745191216,434,0.03700759262,434,0.03653828055,434,0.00742160622,434,0.007072451059,
433,-0.0140806213,433,0.01097527612,433,0.01311319601,433,0.01091639511,433,0.01391931716,433,0.01812223345,433,0.03833040595,433,0.03756489605,433,0.007605496328,433,0.007574701682,
432,-0.0143131176,432,0.01184688695,432,0.01423293538,432,0.01200836338,432,0.01489224844,432,0.01895783283,432,0.03963017464,432,0.03889093921,432,0.007576519623,432,0.007730381098,
431,-0.01437598001,431,0.01241845731,431,0.01518713497,431,0.01277823001,431,0.01538402494,431,0.01969321258,431,0.04079017043,431,0.04017138109,431,0.008501458913,431,0.00805691164,
430,-0.01427183859,430,0.0131121017,430,0.01601761207,430,0.01372031122,430,0.01569459587,430,0.02060143277,430,0.04219613969,430,0.04132354259,430,0.008542007767,430,0.008248722181,
429,-0.01428200863,429,0.01388040185,429,0.01695270278,429,0.01449632645,429,0.01698801853,429,0.0213825386,429,0.04349021241,429,0.04284050688,429,0.008753472008,429,0.008815414272,
428,-0.0145683689,428,0.01484587882,428,0.01839296333,428,0.01598833688,428,0.0179211311,428,0.02256336622,428,0.04514693469,428,0.04416289553,428,0.009514039382,428,0.009373405017,
427,-0.01441734936,427,0.01574014314,427,0.01953386329,427,0.01714640856,427,0.01825741492,427,0.02360775135,427,0.04677835107,427,0.04574294761,427,0.009867732413,427,0.009433690459,
426,-0.01435599569,426,0.0169553142,426,0.02068474516,426,0.01802500151,426,0.01956178062,426,0.02489415184,426,0.04867574573,426,0.04770113528,426,0.01003681961,426,0.009837572463,
425,-0.01447298657,425,0.01821972802,425,0.02194864489,425,0.01963416673,425,0.02074778825,425,0.02603763156,425,0.05061232671,425,0.04949745908,425,0.01055654325,425,0.01048724446,
424,-0.01452611294,424,0.01967706904,424,0.02365831845,424,0.02126780152,424,0.02176538482,424,0.02755527571,424,0.05305012316,424,0.05190576613,424,0.01145952474,424,0.0110653108,
423,-0.01447584108,423,0.02090858854,423,0.02540943958,423,0.02257626317,423,0.02287434228,423,0.02922856249,423,0.05544585735,423,0.05424513668,423,0.01193553302,423,0.01162503194,
422,-0.01465737354,422,0.02288288251,422,0.02727249078,422,0.02449988388,422,0.02467591502,422,0.03116530925,422,0.05821530521,422,0.05712679774,422,0.0128672272,422,0.01242759358,
421,-0.01457873173,421,0.02403666638,421,0.02947898954,421,0.02721295692,421,0.02630324848,421,0.03285041079,421,0.06120487675,421,0.0597099103,421,0.01342270803,421,0.01298171282,
420,-0.01467098854,420,0.02627998218,420,0.03220526874,420,0.02914409339,420,0.02817959338,420,0.03521742672,420,0.06478466839,420,0.06328031421,420,0.01440924313,420,0.01396099012,
419,-0.01466468163,419,0.0282513313,419,0.03475669026,419,0.03159471229,419,0.03047637269,419,0.03739978746,419,0.06823180616,419,0.06675665826,419,0.01496822853,419,0.01480591577,
418,-0.01471057814,418,0.03043944202,418,0.03743717074,418,0.0346958451,418,0.03255651146,418,0.04032579064,418,0.07251273096,418,0.0705339238,418,0.0163062755,418,0.01567363553,
417,-0.01415258832,417,0.03260813281,417,0.04054725915,417,0.03728722781,417,0.03450051323,417,0.04282936826,417,0.07665470243,417,0.07458326966,417,0.01694077812,417,0.01622968353,
416,-0.01451004017,416,0.03634473681,416,0.04442360625,416,0.04079793394,416,0.03751858324,416,0.04642875493,416,0.08210539073,416,0.08007256687,416,0.01851539686,416,0.0179860685,
415,-0.01462834142,415,0.03967889771,415,0.04842792451,415,0.04508073628,415,0.04120159149,415,0.05030805245,415,0.08760616928,415,0.08528281748,415,0.0197785981,415,0.01928558387,
414,-0.01465301868,414,0.0433399938,414,0.05315010995,414,0.04935103655,414,0.04465159401,414,0.05440562963,414,0.09430985898,414,0.09158110619,414,0.02211806178,414,0.02103461511,
413,-0.01481796708,413,0.04759332538,413,0.05839136615,413,0.05446284637,413,0.04900782555,413,0.05939305201,413,0.1016114652,413,0.09906823188,413,0.02396367863,413,0.02294136025,
412,-0.01479875296,412,0.05225821957,412,0.06396345049,412,0.05982144922,412,0.0534507297,412,0.06455613673,412,0.1096861959,412,0.1067572311,412,0.0258126948,412,0.02487011068,
411,-0.01460751705,411,0.05728965998,411,0.07048039138,411,0.06578222662,411,0.05847659707,411,0.07042753696,411,0.1187246963,411,0.1154371873,411,0.02830374055,411,0.02716654912,
410,-0.01476117317,410,0.06340569258,410,0.07815933228,410,0.07306599617,410,0.06436806917,410,0.07757750899,410,0.129781574,410,0.1256914586,410,0.03098156676,410,0.03019930981,
409,-0.01473885402,409,0.07046096772,409,0.08651351184,409,0.08087737858,409,0.07103232294,409,0.08533908427,409,0.1413691193,409,0.1374128014,409,0.03404196352,409,0.03270840645,
408,-0.01475396659,408,0.07862211019,408,0.09636787325,408,0.09017914534,408,0.07897280902,408,0.09445922077,408,0.1553676426,408,0.1508437693,408,0.03793793544,408,0.03618616611,
407,-0.01452095527,407,0.08729165792,407,0.1073142886,407,0.1004806682,407,0.08723418415,407,0.10491357,407,0.1708705127,407,0.1659248769,407,0.04213766381,407,0.04020309821,
406,-0.01476327423,406,0.09793568403,406,0.1202024296,406,0.1124857143,406,0.09796351194,406,0.117350623,406,0.1893176138,406,0.1838117242,406,0.04687707499,406,0.0451429449,
405,-0.01468044799,405,0.1101226211,405,0.134708941,405,0.1263741255,405,0.1093734726,405,0.1311395466,405,0.2092191875,405,0.2032829076,405,0.05239987373,405,0.05023812875,
404,-0.0147337988,404,0.1237441376,404,0.1516050994,404,0.1419302225,404,0.1224959791,404,0.1469995677,404,0.2332656533,404,0.2261801809,404,0.05865934119,404,0.05655931309,
403,-0.0146131739,403,0.1390221268,403,0.1709896922,403,0.1599469632,403,0.1376983821,403,0.1657148302,403,0.2602302134,403,0.2522546649,403,0.06593529135,403,0.06331532449,
402,-0.01466658339,402,0.1576396972,402,0.1936511248,402,0.1811803132,402,0.1555051655,402,0.1867159754,402,0.2909315526,402,0.282282114,402,0.07437793911,402,0.07135525346,
401,-0.01478133909,401,0.179673031,401,0.2184509337,401,0.2045458853,401,0.175584197,401,0.2113956958,401,0.3268533051,401,0.3166708052,401,0.08420016617,401,0.08059294522,
400,-0.0145181017,400,0.2018973678,400,0.2472827435,400,0.2308954,400,0.1979331523,400,0.2391620725,400,0.3668617904,400,0.3556852937,400,0.09472584724,400,0.09100522846,
399,-0.01464791317,399,0.2300412953,399,0.2809200585,399,0.2617849112,399,0.2247523367,399,0.2718802094,399,0.4129276276,399,0.4002790749,399,0.1074447185,399,0.1030942425,
398,-0.008898713626,398,0.2781355083,398,0.3474554121,398,0.3219406009,398,0.2746574581,398,0.3335333467,398,0.539711237,398,0.5262316465,398,0.1284736395,398,0.1239982694,
397,-0.009613355622,397,0.3096448481,397,0.386084795,397,0.3561857939,397,0.3035552204,397,0.3715321422,397,0.595241189,397,0.5790428519,397,0.1427921504,397,0.1370205879,
396,-0.008983563632,396,0.3504787683,396,0.4348644316,396,0.400826633,396,0.3439288735,396,0.4193835855,396,0.668251276,396,0.6505826712,396,0.1603922546,396,0.1532119066,
395,-0.008759003133,395,0.3968888819,395,0.4936996996,395,0.4549178183,395,0.3893094361,395,0.4755943418,395,0.751249969,395,0.7306298018,395,0.1811533272,395,0.1755133569,
394,-0.007788413204,394,0.4449581206,394,0.551430583,394,0.5098626614,394,0.4342575371,394,0.5352905393,394,0.8425157666,394,0.8172397614,394,0.2027751654,394,0.1958565712,
393,-0.007771631703,393,0.4946174026,393,0.6116127372,393,0.5657413602,393,0.4808540642,393,0.5966452956,393,0.9326282144,393,0.9049497247,393,0.2238748372,393,0.2172653824,
392,-0.009140336886,392,0.5477119684,392,0.6755615473,392,0.6237338185,392,0.5290716887,392,0.6604766846,392,1.025832057,392,0.9977990985,392,0.2480543703,392,0.2395558357,
391,-0.008073852398,391,0.5987065434,391,0.7406252027,391,0.6809937954,391,0.577793479,391,0.7216129303,391,1.120260239,391,1.090244532,391,0.2696621716,391,0.2609989047,
390,-0.008448323235,390,0.6499345303,390,0.8018682003,390,0.7377974987,390,0.6252486706,390,0.7845107317,390,1.218821526,390,1.187474728,390,0.2918412387,390,0.2821634412,
389,-0.005528283771,389,0.6946489215,389,0.852340281,389,0.7841073871,389,0.6658002138,389,0.8365267515,389,1.307418346,389,1.273280859,389,0.3095429242,389,0.299565345,
388,-0.004424696323,388,0.7308841348,388,0.8961760998,388,0.8225069642,388,0.6965486407,388,0.8803475499,388,1.387230277,388,1.344136119,388,0.3255250454,388,0.3143021464,
387,-0.006381560583,387,0.7591693997,387,0.9257077575,387,0.8496384025,387,0.719634831,387,0.9097607136,387,1.444420695,387,1.401893854,387,0.338616848,387,0.3266973794,
386,-0.007419225294,386,0.7765113115,386,0.9431017041,386,0.863920629,386,0.7322154641,386,0.9250546098,386,1.486996889,386,1.444035292,386,0.344175458,386,0.3327520788,
385,-0.00882678479,385,0.7847535014,385,0.9486422539,385,0.8670237064,385,0.7336070538,385,0.9326901436,385,1.511261344,385,1.472708941,385,0.3483458757,385,0.3356639743,
384,-0.007205769885,384,0.7802779675,384,0.9398288727,384,0.860206306,384,0.7275426388,384,0.9212217331,384,1.524056196,384,1.487563848,384,0.3451333344,384,0.3318756223,
383,-0.006552381907,383,0.7749144435,383,0.9268696308,383,0.8474432826,383,0.7136290669,383,0.904345274,383,1.523614526,383,1.486545682,383,0.3399072886,383,0.3272675872,
382,-0.0063848258,382,0.7642630935,382,0.9112307429,382,0.8326445222,382,0.6991024017,382,0.8837701678,382,1.521343827,382,1.482490778,382,0.3342654705,382,0.3233638406,
381,-0.006439460907,381,0.7522405982,381,0.8951405883,381,0.8162137866,381,0.6839880943,381,0.8618258834,381,1.51478374,381,1.479058981,381,0.3271643221,381,0.3153140843,
380,-0.00615304755,380,0.7437502146,380,0.882042408,380,0.8037351966,380,0.6694449782,380,0.84314394,380,1.508434653,380,1.469901562,380,0.3204514086,380,0.3098586798,
379,-0.006722830702,379,0.7371209264,379,0.8714859486,379,0.7949723005,379,0.6604592204,379,0.8279215097,379,1.514155984,379,1.472328663,379,0.3179709315,379,0.3064543009,
378,-0.006482204888,378,0.7323464751,378,0.868001461,378,0.7944549322,378,0.6518582106,378,0.818613708,378,1.515044212,378,1.47617197,378,0.3143609762,378,0.3039230704,
377,-0.007457038388,377,0.7324385643,377,0.8711769581,377,0.7964032292,377,0.6537719965,377,0.8137868047,377,1.529446125,377,1.482696533,377,0.3161083162,377,0.3047670722,
376,-0.00726137124,376,0.7378458381,376,0.8798578978,376,0.8031628728,376,0.6572400331,376,0.8193287253,376,1.542777896,376,1.499974132,376,0.31736812,376,0.3067082763,
375,-0.007353209425,375,0.7522812486,375,0.8955244422,375,0.819781363,375,0.6681193709,375,0.8291116953,375,1.565867186,375,1.528965116,375,0.3236041069,375,0.31221807,
374,-0.006838634145,374,0.7680408359,374,0.9178072214,374,0.8434852958,374,0.6833792925,374,0.8467341661,374,1.596161604,374,1.554296732,374,0.3317607343,374,0.3194108903,
373,-0.006039205473,373,0.7891907096,373,0.9494601488,373,0.8717915416,373,0.7060528398,373,0.8744172454,373,1.636761308,373,1.593235731,373,0.3407326043,373,0.3285568058,
372,-0.00714771729,372,0.8201347589,372,0.9875252247,372,0.9066478014,372,0.7352951169,372,0.9096390009,372,1.6879282,372,1.640648723,372,0.3546166718,372,0.3421463966,
371,-0.006254561245,371,0.8524830937,371,1.024860978,371,0.9475831389,371,0.7660807967,371,0.9475595951,371,1.738992691,371,1.69057858,371,0.3677276373,371,0.3551655114,
370,-0.007227818016,370,0.8850165009,370,1.069978118,370,0.9898182154,370,0.7974930406,370,0.9921572208,370,1.795766473,370,1.745055676,370,0.3848026097,370,0.3716629148,
369,-0.005895302631,369,0.9163013101,369,1.110990524,369,1.030888319,369,0.8290037513,369,1.034657001,369,1.846429586,369,1.797840238,369,0.3974252045,369,0.3850702345,
368,-0.006883530412,368,0.9553088546,368,1.160182595,368,1.078551531,368,0.866348803,368,1.080976009,368,1.91635251,368,1.855030179,368,0.414151907,368,0.3996139467,
367,-0.005109433085,367,0.974390626,367,1.185101748,367,1.102249742,367,0.8839081526,367,1.106257319,367,1.942887187,367,1.888335586,367,0.4225160182,367,0.4073632658,
366,-0.00578175066,366,0.9945389032,366,1.207750678,366,1.125724673,366,0.9041796923,366,1.127927661,366,1.977701306,366,1.9191643,366,0.4299428463,366,0.4160044491,
365,-0.005837330129,365,1.004823327,365,1.22673142,365,1.139721155,365,0.9154604673,365,1.147390246,365,1.9940238,365,1.937884092,365,0.4347144663,365,0.4194079936,
364,-0.005526852794,364,1.006514907,364,1.226841569,364,1.145292878,364,0.9150591493,364,1.150265574,364,2.001052618,364,1.949344516,364,0.4358320236,364,0.4209010899,
363,-0.004679627251,363,1.001832962,363,1.218974233,363,1.137695074,363,0.9094970226,363,1.14331913,363,1.998505235,363,1.943580627,363,0.431953758,363,0.4171503782,
362,-0.004829462618,362,0.9916747808,362,1.206558108,362,1.12584281,362,0.8968505263,362,1.130337477,362,1.978382945,362,1.9240309,362,0.4264233112,362,0.4122516215,
361,-0.004664927721,361,0.9725334644,361,1.185135841,361,1.109646082,361,0.8799420595,361,1.108646274,361,1.958638787,361,1.906504273,361,0.4191000462,361,0.4032032788,
360,-0.004947102629,360,0.9513583779,360,1.161006927,360,1.08649981,360,0.8598735332,360,1.079013944,360,1.920407772,360,1.865045309,360,0.4108281732,360,0.3954879642,
359,-0.005199885927,359,0.9288023114,359,1.135000706,359,1.063463569,359,0.8379234076,359,1.053324342,359,1.883351326,359,1.8322469,359,0.4000958204,359,0.3854972422,
358,-0.005270884372,358,0.9079995751,358,1.107586026,358,1.041460633,358,0.8167491555,358,1.022921681,358,1.851341963,358,1.796542764,358,0.389341265,358,0.3766641319,
357,-0.004424491432,357,0.8815687895,357,1.080000639,357,1.015608907,357,0.7921708226,357,0.9942644238,357,1.811676502,357,1.762097836,357,0.377987653,357,0.365886867,
356,-0.004357813392,356,0.8610201478,356,1.054703593,356,0.9926590919,356,0.7723110914,356,0.968286097,356,1.781391859,356,1.724947214,356,0.3693893254,356,0.3570260406,
355,-0.004671893548,355,0.8444419503,355,1.031928658,355,0.9749625325,355,0.7553966045,355,0.9451542497,355,1.74402678,355,1.694545031,355,0.3633050323,355,0.3495765626,
354,-0.003868564963,354,0.8254028559,354,1.012716889,354,0.957583189,354,0.7387815714,354,0.9241250157,354,1.720648527,354,1.665763021,354,0.3548284471,354,0.3422980607,
353,-0.004145770799,353,0.8126217723,353,0.9987648129,353,0.944227457,353,0.7280423641,353,0.9092490077,353,1.691018224,353,1.640459895,353,0.3491254151,353,0.3361997306,
352,-0.004394766875,352,0.8002107143,352,0.9842868447,352,0.9367957711,352,0.7189726233,352,0.8972075582,352,1.665940404,352,1.621438861,352,0.3436838388,352,0.3320276141,
351,-0.004336747341,351,0.7905189991,351,0.9764303565,351,0.9256420135,351,0.7117943168,351,0.886049211,351,1.646393538,351,1.60028398,351,0.3402603567,351,0.3288482726,
350,-0.003800416132,350,0.7829978466,350,0.9648985267,350,0.9185889363,350,0.7049813867,350,0.8780278563,350,1.628131151,350,1.579703331,350,0.3352888227,350,0.3235391974,
349,-0.004301326815,349,0.7755371332,349,0.9573344588,349,0.9106879234,349,0.6984428167,349,0.8724352121,349,1.61045301,349,1.562894821,349,0.3331305087,349,0.3216452599,
348,-0.003647042438,348,0.7651651502,348,0.9452462792,348,0.902156949,348,0.6930324435,348,0.8637951016,348,1.590907812,348,1.541611671,348,0.3290987313,348,0.3174317479,
347,-0.003570181085,347,0.7556544542,347,0.9362699389,347,0.8919858336,347,0.6847069263,347,0.8560211062,347,1.563354492,347,1.518371344,347,0.3249650002,347,0.3134658933,
346,-0.003521140898,346,0.7400656939,346,0.9195817709,346,0.8773875237,346,0.6744397283,346,0.8443198204,346,1.534765124,346,1.490942836,346,0.3193033636,346,0.3087816834,
345,-0.00294389925,345,0.7256394625,345,0.902276516,345,0.8616155386,345,0.6623035669,345,0.825887382,345,1.502054691,345,1.458060503,345,0.3126500845,345,0.3025537133,
344,-0.002696230775,344,0.7081940174,344,0.8800055385,344,0.8414123058,344,0.6472164392,344,0.8083516955,344,1.468970895,344,1.424363017,344,0.3049841821,344,0.2945513725,
343,-0.002560634864,343,0.6877264977,343,0.8557685614,343,0.819634378,343,0.6304817796,343,0.789809823,343,1.427335978,343,1.386463642,343,0.2962014079,343,0.2865663171,
342,-0.003177241888,342,0.6690679193,342,0.830899477,342,0.7980915904,342,0.6139317751,342,0.7634506822,342,1.390785813,342,1.348498583,342,0.2885697782,342,0.2780337036,
341,-0.002321399283,341,0.6446595788,341,0.8036954403,341,0.7709622979,341,0.5926370025,341,0.7407218814,341,1.347326756,341,1.306473136,341,0.2783441842,341,0.2680059671,
340,-0.002703845734,340,0.6241115332,340,0.7758127451,340,0.7474723458,340,0.5739347935,340,0.7132549882,340,1.30546391,340,1.264760733,340,0.2686647177,340,0.2599792778,
339,-0.0017721568,339,0.6001257896,339,0.7489730716,339,0.7204507589,339,0.5535967946,339,0.6880198121,339,1.264542699,339,1.225993991,339,0.2594960928,339,0.2496734709,
338,-0.00198226911,338,0.5799728632,338,0.7238628268,338,0.6965532303,338,0.5354022384,338,0.6647942066,338,1.222763538,338,1.187615156,338,0.2506431639,338,0.2415549308,
337,-0.002930889372,337,0.56160146,337,0.7019520998,337,0.6754754782,337,0.5193183422,337,0.644192338,337,1.187096953,337,1.151689529,337,0.2438710034,337,0.2343710512,
336,-0.001823508646,336,0.5426368117,336,0.6805482507,336,0.6555917859,336,0.5046000481,336,0.6233889461,336,1.152930379,336,1.115645409,336,0.2337637842,336,0.2271916717,
335,-0.002198203467,335,0.5290937424,335,0.6606528759,335,0.6375789642,335,0.4920225441,335,0.6080880761,335,1.120415568,335,1.090090513,335,0.228549704,335,0.2212371826,
334,-0.001970879501,334,0.5155348182,334,0.6468272209,334,0.6217295527,334,0.4819427133,334,0.5939083099,334,1.091417789,334,1.060213447,334,0.2234079689,334,0.2150976956,
333,-0.001987834927,333,0.5026251078,333,0.6314700246,333,0.6076284647,333,0.4712360799,333,0.5809543729,333,1.068250418,333,1.035675287,333,0.2185499668,333,0.2103981525,
332,-0.001453134231,332,0.4924891591,332,0.6186568141,332,0.5960318446,332,0.4639494419,332,0.5705881119,332,1.044204831,332,1.013706923,332,0.2131783813,332,0.2059280574,
331,-0.001394513762,331,0.4829373658,331,0.606600523,331,0.58428967,331,0.4566917419,331,0.5614656806,331,1.024203777,331,0.9933944345,331,0.208882764,331,0.2022102475,
330,-0.001422947738,330,0.4736303389,330,0.5952779055,330,0.5744727254,330,0.4503207803,330,0.5527040362,330,1.002841115,330,0.9762538671,330,0.2070919424,330,0.1984672397,
329,-0.00185840996,329,0.4659928083,329,0.5856635571,329,0.5636922717,329,0.4437958002,329,0.5449694991,329,0.9865410924,329,0.9567633867,329,0.2028309554,329,0.1962876916,
328,-0.001453082659,328,0.4561203718,328,0.5745208859,328,0.5532335043,328,0.4381296933,328,0.5368371606,328,0.9681321979,328,0.93853122,328,0.1988837719,328,0.1924231946,
327,-0.001165322843,327,0.4474157989,327,0.5634978414,327,0.5430141687,327,0.4305877984,327,0.5289596915,327,0.9494301677,327,0.9221420288,327,0.1943053007,327,0.1882971376,
326,-0.001354981796,326,0.4386901557,326,0.5540565848,326,0.5330272913,326,0.4253483117,326,0.5202234387,326,0.9330137372,326,0.9049094319,326,0.1918333918,326,0.1849156469,
325,-0.001260420773,325,0.4291163385,325,0.5436036587,325,0.5218885541,325,0.4172222316,325,0.510700345,325,0.9152029753,325,0.8861358166,325,0.1871748418,325,0.1820264012,
324,-0.001971291844,324,0.423266232,324,0.5331707597,324,0.5126583576,324,0.4121443033,324,0.5032842159,324,0.8976637125,324,0.8734995127,324,0.1848816425,324,0.1781554371,
323,-0.00114972936,323,0.4147497416,323,0.5227578282,323,0.5037868023,323,0.4048512876,323,0.49458009,323,0.8807187676,323,0.8546794653,323,0.1815298349,323,0.1744041145,
322,-0.00131059438,322,0.4071235955,322,0.514672637,322,0.4946322441,322,0.399723053,322,0.4879221916,322,0.8664535284,322,0.8407825828,322,0.1777351946,322,0.1716117412,
321,-0.001252780668,321,0.4014481306,321,0.5072248578,321,0.4884703755,321,0.3945302665,321,0.4810397029,321,0.8541971445,321,0.8286700845,321,0.1750456393,321,0.1702864915,
320,-0.00131931738,320,0.3966160119,320,0.5010533929,320,0.48228845,320,0.3926457763,320,0.4767557085,320,0.842422843,320,0.8194543123,320,0.173466742,320,0.167664215,
319,-0.001350388513,319,0.3935780525,319,0.4968786836,319,0.4769905508,319,0.388450563,319,0.4732038081,319,0.8353838325,319,0.8105151057,319,0.1720509976,319,0.1661030352,
318,-0.001632506843,318,0.3912205994,318,0.4939520657,318,0.4734140038,318,0.3875790536,318,0.4706822038,318,0.8282430768,318,0.8034806848,318,0.17075333,318,0.1651667356,
317,-0.001385895535,317,0.38720873,317,0.4914150834,317,0.4725170434,317,0.386274159,317,0.4700678587,317,0.8226259947,317,0.7987853289,317,0.170498535,317,0.164374426,
316,-0.001661337912,316,0.387421906,316,0.4896313548,316,0.4703939557,316,0.3858039081,316,0.4695236683,316,0.8195225596,316,0.7937178612,316,0.1699736267,316,0.164384529,
315,-0.001145340386,315,0.3865004778,315,0.489882648,315,0.4680729806,315,0.3855793774,315,0.4690428078,315,0.8164197206,315,0.791600287,315,0.1693962812,315,0.1638076752,
314,-0.001749160001,314,0.386808008,314,0.4892340004,314,0.46858868,314,0.3861294687,314,0.4701116085,314,0.8171595335,314,0.790774405,314,0.1694917977,314,0.1648664623,
313,-0.001345227356,313,0.3864175081,313,0.4883051515,313,0.4688535631,313,0.3864186406,313,0.4701360464,313,0.8131590486,313,0.790039897,313,0.1706066132,313,0.1641125828,
312,-0.001901916694,312,0.3863736689,312,0.4894536436,312,0.4685299098,312,0.3876694739,312,0.4710548222,312,0.8140034676,312,0.790984273,312,0.1710897088,312,0.1655740142,
311,-0.0012979483,311,0.3851476908,311,0.4881235063,311,0.4673315883,311,0.3869833648,311,0.4704741836,311,0.8125921488,311,0.7890321016,311,0.1709021628,311,0.1643651724,
310,-0.001597845345,310,0.3850308061,310,0.4875516295,310,0.4662127793,310,0.386394769,310,0.4714395702,310,0.812001586,310,0.7869378328,310,0.1707151234,310,0.1648845077,
309,-0.001225419692,309,0.3835248053,309,0.484900564,309,0.4636117816,309,0.3842217922,309,0.4683829248,309,0.809951663,309,0.7851823568,309,0.1693529934,309,0.1645397395,
308,-0.002359658945,308,0.3810639977,308,0.4809930921,308,0.4603816867,308,0.3825645149,308,0.4670774341,308,0.8058837056,308,0.7819797993,308,0.1692992896,308,0.1628986895,
307,-0.001937018009,307,0.3794858754,307,0.4790109992,307,0.4582318664,307,0.3812372386,307,0.4645560384,307,0.8028106093,307,0.7784205079,307,0.1685049385,307,0.1630407125,
306,-0.002822011709,306,0.3771548271,306,0.4767344594,306,0.4544528127,306,0.3786059618,306,0.4621439278,306,0.7994571328,306,0.7744100094,306,0.1672770083,306,0.162826404,
305,-0.002284578048,305,0.3738950193,305,0.4715078175,305,0.450806886,305,0.3749100864,305,0.457703203,305,0.7940703034,305,0.7685559988,305,0.166626662,305,0.1615029871,
304,-0.002587706083,304,0.3703753352,304,0.4669606686,304,0.4458093345,304,0.3711348176,304,0.4535707533,304,0.7874037027,304,0.7623006701,304,0.1646954268,304,0.1600102037,
303,-0.002610761439,303,0.3669241369,303,0.4619500339,303,0.4412496984,303,0.3683567941,303,0.4474568963,303,0.7809611559,303,0.7570472956,303,0.1635220051,303,0.1586457491,
302,-0.003121218178,302,0.3630942106,302,0.4576692879,302,0.4365243614,302,0.3652829826,302,0.444004029,302,0.7743198872,302,0.7498791814,302,0.1627739072,302,0.1574278176,
301,-0.003220925108,301,0.3577332795,301,0.4529668987,301,0.4316298068,301,0.3617399037,301,0.4395007193,301,0.7672749758,301,0.7434390783,301,0.1613606811,301,0.1558860838,
300,-0.003110115416,300,0.354467243,300,0.4475700855,300,0.4263151884,300,0.3579388559,300,0.4345530272,300,0.7593252659,300,0.737526238,300,0.159313634,300,0.1536531746,
299,-0.003983746748,299,0.3512836695,299,0.4435667098,299,0.4224610925,299,0.3553121686,299,0.4302147329,299,0.7531779408,299,0.7316510081,299,0.1585446447,299,0.1532424092,
298,-0.003848757828,298,0.3465229571,298,0.4370646775,298,0.4171135128,298,0.3507335782,298,0.4247061014,298,0.7470541,298,0.7240698338,298,0.1561529934,298,0.1518124789,
297,-0.004615959711,297,0.3427121937,297,0.4320365489,297,0.4115411043,297,0.3475435972,297,0.4198265672,297,0.7390193939,297,0.7166807055,297,0.1553904563,297,0.1501724869,
296,-0.004302557092,296,0.3372526467,296,0.4256136417,296,0.4054974914,296,0.3420430124,296,0.4130246639,296,0.7306291461,296,0.7081829906,296,0.1527703255,296,0.1489954591,
295,-0.004364322871,295,0.3314507604,295,0.418931365,295,0.3981421888,295,0.3370271623,295,0.4067847431,295,0.721472919,295,0.7005221248,295,0.1503923088,295,0.1458967626,
294,-0.004887621384,294,0.3250605464,294,0.4112017751,294,0.391307354,294,0.3312569261,294,0.3999020457,294,0.7119204998,294,0.6907918453,294,0.1484006941,294,0.1440389454,
293,-0.005494443234,293,0.3189159334,293,0.4033944905,293,0.3834764659,293,0.3257516921,293,0.3922669291,293,0.7019044161,293,0.6806051731,293,0.1464366913,293,0.1417503953,
292,-0.005814496428,292,0.3115217388,292,0.3943985701,292,0.3746609688,292,0.3196819723,292,0.3826891482,292,0.6897450089,292,0.6687371135,292,0.1440340728,292,0.1396347731,
291,-0.006400895305,291,0.3053505123,291,0.3845253885,291,0.3661237657,291,0.312391907,291,0.3742797375,291,0.6769815683,291,0.6576746702,291,0.1412727088,291,0.1367109269,
290,-0.006635549944,290,0.2969354689,290,0.3754343092,290,0.3570663929,290,0.3056040704,290,0.3647623062,290,0.6639536023,290,0.6457740664,290,0.1382210851,290,0.133778587,
289,-0.007335342001,289,0.2894698977,289,0.3667056561,289,0.3478927612,289,0.2998219132,289,0.356061399,289,0.6511195898,289,0.6330659986,289,0.1355987787,289,0.1314871758,
288,-0.007716553751,288,0.2815272212,288,0.3568458259,288,0.339253962,288,0.2925850749,288,0.3459008932,288,0.6393992901,288,0.6211212277,288,0.132017985,288,0.127625227,
287,-0.00857981015,287,0.2751995325,287,0.3480769396,287,0.3305454552,287,0.2866633236,287,0.3367187083,287,0.6272206306,287,0.6087052226,287,0.1291006804,287,0.1250055581,
286,-0.009227673523,286,0.2683060765,286,0.3398602009,286,0.3220404387,286,0.2808173895,286,0.3286629319,286,0.6157525778,286,0.5993596911,286,0.1268169433,286,0.1231894046,
285,-0.01017138828,285,0.2620499134,285,0.332190752,285,0.3142229319,285,0.2754346132,285,0.3199611306,285,0.6059253216,285,0.5887618065,285,0.1245753095,285,0.1202485934,
284,-0.0101580359,284,0.2557060719,284,0.3239258826,284,0.3067751825,284,0.26935184,284,0.3120393455,284,0.5945942402,284,0.578091979,284,0.1215607747,284,0.1177657917,
283,-0.01165419724,283,0.2504200637,283,0.3171543181,283,0.3006799519,283,0.2650236487,283,0.3048886657,283,0.5872039795,283,0.570263505,283,0.1200209782,283,0.1159037724,
282,-0.01163569931,282,0.2444381267,282,0.3089236319,282,0.2936988771,282,0.2586480379,282,0.29658705,282,0.5779070854,282,0.5610145926,282,0.1170332432,282,0.1135271713,
281,-0.01253572479,281,0.2392394394,281,0.3033255041,281,0.2871385813,281,0.2545196116,281,0.2900371253,281,0.5698445439,281,0.5533270836,281,0.1157042012,281,0.112559773,
280,-0.0130468132,280,0.2343112379,280,0.297447592,280,0.2810167372,280,0.2493008673,280,0.2837900817,280,0.563703835,280,0.5472922325,280,0.1137178689,280,0.1093177944,
279,-0.01357631851,279,0.2291228622,279,0.2911858261,279,0.2758549154,279,0.2454445213,279,0.276815176,279,0.5580643415,279,0.5412451029,279,0.1116657555,279,0.1078519523,
278,-0.01429448277,278,0.2249593437,278,0.2859204113,278,0.2704542279,278,0.241006583,278,0.2712741196,278,0.5522646308,278,0.5365568399,278,0.1099631041,278,0.1071022674,
277,-0.01477698609,277,0.2213173956,277,0.2812318504,277,0.2662061453,277,0.2376425117,277,0.2653559148,277,0.5478163958,277,0.532366991,277,0.1082080528,277,0.105204463,
276,-0.01630776189,276,0.2195594609,276,0.2783414423,276,0.2629064023,276,0.2351878583,276,0.2613766789,276,0.5460951924,276,0.5304653049,276,0.1075283363,276,0.1044019461,
275,-0.01695720106,275,0.2159867287,275,0.2748104632,275,0.2590521574,275,0.2322777659,275,0.2559132576,275,0.5440890789,275,0.5278928876,275,0.10607595,275,0.1033831686,
274,-0.0171411857,274,0.212913081,274,0.2706562579,274,0.2550137639,274,0.2296881825,274,0.2507718205,274,0.5421027541,274,0.5269575119,274,0.1043965816,274,0.10161075,
273,-0.0186607372,273,0.2113671005,273,0.2676925063,273,0.2523511052,273,0.2277024686,273,0.2475137264,273,0.5419759154,273,0.5266885757,273,0.1044107005,273,0.1014075428,
272,-0.01924793608,272,0.2085884809,272,0.2646652162,272,0.2490946949,272,0.225195542,272,0.2429640144,272,0.542411387,272,0.525919199,272,0.1032918692,272,0.1004883349,
271,-0.02027491294,271,0.2076324373,271,0.2617285848,271,0.2462188154,271,0.2232773155,271,0.2392414212,271,0.5431011319,271,0.5282657146,271,0.1033524573,271,0.1002149209,
270,-0.02057522535,270,0.2054741681,270,0.2589080334,270,0.243166253,270,0.2212391943,270,0.23529993,270,0.5463225245,270,0.5297507644,270,0.1017092168,270,0.09888873249,
269,-0.02151743881,269,0.2043400556,269,0.2579089701,269,0.2420847267,269,0.2206606865,269,0.2325535268,269,0.5495639443,269,0.5328532457,269,0.1017715484,269,0.09902328998,
268,-0.0227160342,268,0.2046833783,268,0.2572502196,268,0.2405854762,268,0.2205109,268,0.2299761325,268,0.555280745,268,0.5391885638,268,0.101840429,268,0.09928085655,
267,-0.02406094596,267,0.2050044388,267,0.2571466863,267,0.2403818667,267,0.2210835218,267,0.2292823344,267,0.563223958,267,0.5473360419,267,0.1025245711,267,0.1001414359,
266,-0.02458987199,266,0.2061157078,266,0.2581924498,266,0.2408590764,266,0.2214911282,266,0.2278341502,266,0.5734330416,266,0.5550836921,266,0.1031249613,266,0.1003370732,
265,-0.02587920427,265,0.2093489915,265,0.2611473203,265,0.2432332337,265,0.2246316969,265,0.2291180789,265,0.5851794481,265,0.5675419569,265,0.1047392115,265,0.102213122,
264,-0.02652574889,264,0.2127946317,264,0.2648805976,264,0.2454860657,264,0.227269724,264,0.2302966267,264,0.598826468,264,0.5824083686,264,0.1061367244,264,0.1031413376,
263,-0.02654956467,263,0.2163918465,263,0.2687353194,263,0.248817414,263,0.2309236377,263,0.2327425182,263,0.6158243418,263,0.5972647667,263,0.1076231822,263,0.1049213111,
262,-0.02711700834,262,0.2225477397,262,0.2757073939,262,0.2546279132,262,0.2366102189,262,0.2367619723,262,0.6349382401,262,0.6165192127,262,0.1105712056,262,0.1077422947,
261,-0.0276470352,261,0.2298312783,261,0.2838128209,261,0.2614824474,261,0.2428720295,261,0.2422430515,261,0.6578735113,261,0.6380953193,261,0.11339093,261,0.1101590842,
260,-0.0284741763,260,0.238707453,260,0.2939694226,260,0.2706466913,260,0.2512684762,260,0.2498782128,260,0.6845497489,260,0.6640543342,260,0.117667757,260,0.1150479838,
259,-0.02839057893,259,0.2482000887,259,0.3051530123,259,0.2804871202,259,0.2595123649,259,0.258163929,259,0.7124484181,259,0.6910800338,259,0.1216052994,259,0.1187104732,
258,-0.02907857671,258,0.2607784271,258,0.3200392723,258,0.2943461537,258,0.2707832754,258,0.2690537274,258,0.7468916774,258,0.7240486741,258,0.127238065,258,0.1238374934,
257,-0.0296155978,257,0.2764811814,257,0.3373277783,257,0.3093979359,257,0.2845751643,257,0.2832893133,257,0.7860116363,257,0.7617343068,257,0.1333524436,257,0.1297277212,
256,-0.02993358858,256,0.2936926782,256,0.3571845293,256,0.3278136551,256,0.2998605967,256,0.2987230122,256,0.8297909498,256,0.8038617969,256,0.1409419477,256,0.1373107731,
255,-0.03056462482,255,0.3142041564,255,0.3824645579,255,0.3505643606,255,0.3192081451,255,0.3190071881,255,0.8819828629,255,0.8542563319,255,0.1495056003,255,0.1454757899,
254,-0.03123165295,254,0.3397851586,254,0.4119374752,254,0.3783491552,254,0.3416329622,254,0.3439796269,254,0.9432030916,254,0.9133604765,254,0.1609505415,254,0.1561905593,
253,-0.03130199015,253,0.3693274856,253,0.4466798007,253,0.4105400741,253,0.3684792221,253,0.3731726408,253,1.013431668,253,0.9815828204,253,0.1724621654,253,0.1676395684,
252,-0.0319298394,252,0.4043603539,252,0.4883589745,252,0.4493912756,252,0.3996205032,252,0.4073303938,252,1.096514583,252,1.060229659,252,0.1871587485,252,0.1824315935,
251,-0.03298948705,251,0.4463478327,251,0.5369984508,251,0.4937428832,251,0.4366194606,251,0.448333025,251,1.190078974,251,1.151419878,251,0.2043316811,251,0.198228389,
250,-0.03341907635,250,0.4920717776,250,0.5911495686,250,0.5428885221,250,0.4767051637,250,0.4934628606,250,1.296082497,250,1.254439116,250,0.223405838,250,0.2169806957,

Cell1 Blank,
Cell1 Blank
Collection Time: 1/7/2021 2:16:49 PM
Operator Name  :
Scan Software Version: 4.20(470)
Parameter List :
Instrument                        Cary 300
Instrument Version                12.00
Start (nm)                        600.00
Stop (nm)                         250.00
X Mode                            Nanometers
Y Mode                            Abs
UV-Vis Scan Rate (nm/min)         600.000
UV-Vis Data Interval (nm)         1.000
UV-Vis Ave. Time (sec)            0.100
UV-Vis SBW (nm)                   2.0
Beam Mode                         Double
Signal-to-noise Mode              Off
UV Source                         On
Vis Source                        On
Source Changeover (nm)            400.00
Baseline Correction               On
Baseline Type                     Baseline correction
Baseline File Name
Baseline Std Ref File Name
Cycle Mode                        Off
Accessory                         Cell changer
Temperature (C)                  24.97
Comments
Method Log     :
Method Name    : C:\Users\ISIS\Desktop\Hermans UVVIS Data\Michi\methods\concentration25C.MSW
Date/Time stamp: 12/2/2020 1:13:26 PM
Method Modifications:
X Start nm Changed: 12/2/2020 1:12:58 PM, Old: 800.00, New: 600.00
X Stop nm Changed: 12/2/2020 1:12:58 PM, Old: 200.00, New: 250.00
Y Max Abs Changed: 12/2/2020 1:12:58 PM, Old:     1.00, New:     3.00
Source changeover Changed: 12/2/2020 1:12:58 PM, Old:   350.00, New:   400.00
Baseline Correction Changed: 12/2/2020 1:12:58 PM, Old:0, New:1
Cell Changer Changed: 12/2/2020 1:12:58 PM, Old:OFF, New:ON
Cell2 Changed: 12/2/2020 1:12:58 PM, Old:ON, New:OFF
Cell3 Changed: 12/2/2020 1:12:58 PM, Old:ON, New:OFF
Cell4 Changed: 12/2/2020 1:12:58 PM, Old:ON, New:OFF
Cell5 Changed: 12/2/2020 1:12:58 PM, Old:ON, New:OFF
Cell6 Changed: 12/2/2020 1:12:58 PM, Old:ON, New:OFF
Auto Temp Setting Changed: 12/2/2020 1:12:58 PM, Old:0, New:1
Saved as C:\Users\ISIS\Desktop\Hermans UVVIS Data\Michi\methods\concentration25C.MSW
Opened C:\Users\ISIS\Desktop\Hermans UVVIS Data\Michi\methods\concentration25C.MSW
End Method Modifications
<Current Block Temp> , 25.07
<Current Cell> , 1
<SBW (nm)> , 2.00
<Energy> , 167.00
<Current Wavelength> , 250.00

Er,
Er
Collection Time: 1/7/2021 2:30:18 PM
Operator Name  :
Scan Software Version: 4.20(470)
Parameter List :
Instrument                        Cary 300
Instrument Version                12.00
Start (nm)                        600.00
Stop (nm)                         250.00
X Mode                            Nanometers
Y Mode                            Abs
UV-Vis Scan Rate (nm/min)         600.000
UV-Vis Data Interval (nm)         1.000
UV-Vis Ave. Time (sec)            0.100
UV-Vis SBW (nm)                   2.0
Beam Mode                         Double
Signal-to-noise Mode              Off
UV Source                         On
Vis Source                        On
Source Changeover (nm)            400.00
Baseline Correction               On
Baseline Type                     Baseline correction
Baseline File Name                C:\Users\ISIS\Desktop\Hermans UVVIS Data\Michi\20210107_100mM_allions\Tb3.BSW
Baseline Std Ref File Name
Cycle Mode                        Off
Accessory                         Cell changer
Temperature (C)                  25.02
Comments
Method Log     :
Method Name    : C:\Users\ISIS\Desktop\Hermans UVVIS Data\Michi\methods\concentration25C.MSW
Date/Time stamp: 12/2/2020 1:13:26 PM
Method Modifications:
X Start nm Changed: 12/2/2020 1:12:58 PM, Old: 800.00, New: 600.00
X Stop nm Changed: 12/2/2020 1:12:58 PM, Old: 200.00, New: 250.00
Y Max Abs Changed: 12/2/2020 1:12:58 PM, Old:     1.00, New:     3.00
Source changeover Changed: 12/2/2020 1:12:58 PM, Old:   350.00, New:   400.00
Baseline Correction Changed: 12/2/2020 1:12:58 PM, Old:0, New:1
Cell Changer Changed: 12/2/2020 1:12:58 PM, Old:OFF, New:ON
Cell2 Changed: 12/2/2020 1:12:58 PM, Old:ON, New:OFF
Cell3 Changed: 12/2/2020 1:12:58 PM, Old:ON, New:OFF
Cell4 Changed: 12/2/2020 1:12:58 PM, Old:ON, New:OFF
Cell5 Changed: 12/2/2020 1:12:58 PM, Old:ON, New:OFF
Cell6 Changed: 12/2/2020 1:12:58 PM, Old:ON, New:OFF
Auto Temp Setting Changed: 12/2/2020 1:12:58 PM, Old:0, New:1
Saved as C:\Users\ISIS\Desktop\Hermans UVVIS Data\Michi\methods\concentration25C.MSWOpened C:\Users\ISIS\Desktop\Hermans UVVIS Data\Michi\methods\concentration25C.MSW
Saved as C:\Users\ISIS\Desktop\Hermans UVVIS Data\Michi\20210107_100mM_allions\Tb1.BSWSaved as C:\Users\ISIS\Desktop\Hermans UVVIS Data\Michi\20210107_100mM_allions\Tb2.BSWSaved as C:\Users\ISIS\Desktop\Hermans UVVIS Data\Michi\20210107_100mM_allions\Tb3.BSWSaved as C:\Users\ISIS\Desktop\Hermans UVVIS Data\Michi\20210107_100mM_allions\Er.BSW
End Method Modifications
<Current Block Temp> , 25.07
<Current Cell> , 1
<SBW (nm)> , 2.00
<Energy> , 167.00
<Current Wavelength> , 256.33

Gd,
Gd
Collection Time: 1/7/2021 2:34:40 PM
Operator Name  :
Scan Software Version: 4.20(470)
Parameter List :
Instrument                        Cary 300
Instrument Version                12.00
Start (nm)                        600.00
Stop (nm)                         250.00
X Mode                            Nanometers
Y Mode                            Abs
UV-Vis Scan Rate (nm/min)         600.000
UV-Vis Data Interval (nm)         1.000
UV-Vis Ave. Time (sec)            0.100
UV-Vis SBW (nm)                   2.0
Beam Mode                         Double
Signal-to-noise Mode              Off
UV Source                         On
Vis Source                        On
Source Changeover (nm)            400.00
Baseline Correction               On
Baseline Type                     Baseline correction
Baseline File Name                C:\Users\ISIS\Desktop\Hermans UVVIS Data\Michi\20210107_100mM_allions\Er.BSW
Baseline Std Ref File Name
Cycle Mode                        Off
Accessory                         Cell changer
Temperature (C)                  25.02
Comments
Method Log     :
Method Name    : C:\Users\ISIS\Desktop\Hermans UVVIS Data\Michi\methods\concentration25C.MSW
Date/Time stamp: 12/2/2020 1:13:26 PM
Method Modifications:
X Start nm Changed: 12/2/2020 1:12:58 PM, Old: 800.00, New: 600.00
X Stop nm Changed: 12/2/2020 1:12:58 PM, Old: 200.00, New: 250.00
Y Max Abs Changed: 12/2/2020 1:12:58 PM, Old:     1.00, New:     3.00
Source changeover Changed: 12/2/2020 1:12:58 PM, Old:   350.00, New:   400.00
Baseline Correction Changed: 12/2/2020 1:12:58 PM, Old:0, New:1
Cell Changer Changed: 12/2/2020 1:12:58 PM, Old:OFF, New:ON
Cell2 Changed: 12/2/2020 1:12:58 PM, Old:ON, New:OFF
Cell3 Changed: 12/2/2020 1:12:58 PM, Old:ON, New:OFF
Cell4 Changed: 12/2/2020 1:12:58 PM, Old:ON, New:OFF
Cell5 Changed: 12/2/2020 1:12:58 PM, Old:ON, New:OFF
Cell6 Changed: 12/2/2020 1:12:58 PM, Old:ON, New:OFF
Auto Temp Setting Changed: 12/2/2020 1:12:58 PM, Old:0, New:1
Saved as C:\Users\ISIS\Desktop\Hermans UVVIS Data\Michi\methods\concentration25C.MSWOpened C:\Users\ISIS\Desktop\Hermans UVVIS Data\Michi\methods\concentration25C.MSW
Saved as C:\Users\ISIS\Desktop\Hermans UVVIS Data\Michi\20210107_100mM_allions\Tb1.BSWSaved as C:\Users\ISIS\Desktop\Hermans UVVIS Data\Michi\20210107_100mM_allions\Tb2.BSWSaved as C:\Users\ISIS\Desktop\Hermans UVVIS Data\Michi\20210107_100mM_allions\Tb3.BSWSaved as C:\Users\ISIS\Desktop\Hermans UVVIS Data\Michi\20210107_100mM_allions\Er.BSWSaved as C:\Users\ISIS\Desktop\Hermans UVVIS Data\Michi\20210107_100mM_allions\Gd.BSW
End Method Modifications
<Current Block Temp> , 25.02
<Current Cell> , 1
<SBW (nm)> , 2.00
<Energy> , 167.00
<Current Wavelength> , 250.00

Lu,
Lu
Collection Time: 1/7/2021 2:39:36 PM
Operator Name  :
Scan Software Version: 4.20(470)
Parameter List :
Instrument                        Cary 300
Instrument Version                12.00
Start (nm)                        600.00
Stop (nm)                         250.00
X Mode                            Nanometers
Y Mode                            Abs
UV-Vis Scan Rate (nm/min)         600.000
UV-Vis Data Interval (nm)         1.000
UV-Vis Ave. Time (sec)            0.100
UV-Vis SBW (nm)                   2.0
Beam Mode                         Double
Signal-to-noise Mode              Off
UV Source                         On
Vis Source                        On
Source Changeover (nm)            400.00
Baseline Correction               On
Baseline Type                     Baseline correction
Baseline File Name                C:\Users\ISIS\Desktop\Hermans UVVIS Data\Michi\20210107_100mM_allions\Gd.BSW
Baseline Std Ref File Name
Cycle Mode                        Off
Accessory                         Cell changer
Temperature (C)                  25.07
Comments
Method Log     :
Method Name    : C:\Users\ISIS\Desktop\Hermans UVVIS Data\Michi\methods\concentration25C.MSW
Date/Time stamp: 12/2/2020 1:13:26 PM
Method Modifications:
X Start nm Changed: 12/2/2020 1:12:58 PM, Old: 800.00, New: 600.00
X Stop nm Changed: 12/2/2020 1:12:58 PM, Old: 200.00, New: 250.00
Y Max Abs Changed: 12/2/2020 1:12:58 PM, Old:     1.00, New:     3.00
Source changeover Changed: 12/2/2020 1:12:58 PM, Old:   350.00, New:   400.00
Baseline Correction Changed: 12/2/2020 1:12:58 PM, Old:0, New:1
Cell Changer Changed: 12/2/2020 1:12:58 PM, Old:OFF, New:ON
Cell2 Changed: 12/2/2020 1:12:58 PM, Old:ON, New:OFF
Cell3 Changed: 12/2/2020 1:12:58 PM, Old:ON, New:OFF
Cell4 Changed: 12/2/2020 1:12:58 PM, Old:ON, New:OFF
Cell5 Changed: 12/2/2020 1:12:58 PM, Old:ON, New:OFF
Cell6 Changed: 12/2/2020 1:12:58 PM, Old:ON, New:OFF
Auto Temp Setting Changed: 12/2/2020 1:12:58 PM, Old:0, New:1
Saved as C:\Users\ISIS\Desktop\Hermans UVVIS Data\Michi\methods\concentration25C.MSWOpened C:\Users\ISIS\Desktop\Hermans UVVIS Data\Michi\methods\concentration25C.MSW
Saved as C:\Users\ISIS\Desktop\Hermans UVVIS Data\Michi\20210107_100mM_allions\Tb1.BSWSaved as C:\Users\ISIS\Desktop\Hermans UVVIS Data\Michi\20210107_100mM_allions\Tb2.BSWSaved as C:\Users\ISIS\Desktop\Hermans UVVIS Data\Michi\20210107_100mM_allions\Tb3.BSWSaved as C:\Users\ISIS\Desktop\Hermans UVVIS Data\Michi\20210107_100mM_allions\Er.BSWSaved as C:\Users\ISIS\Desktop\Hermans UVVIS Data\Michi\20210107_100mM_allions\Gd.BSWSaved as C:\Users\ISIS\Desktop\Hermans UVVIS Data\Michi\20210107_100mM_allions\Lu.BSW
End Method Modifications
<Current Block Temp> , 25.07
<Current Cell> , 1
<SBW (nm)> , 2.00
<Energy> , 167.00
<Current Wavelength> , 256.33

La,
La
Collection Time: 1/7/2021 2:44:26 PM
Operator Name  :
Scan Software Version: 4.20(470)
Parameter List :
Instrument                        Cary 300
Instrument Version                12.00
Start (nm)                        600.00
Stop (nm)                         250.00
X Mode                            Nanometers
Y Mode                            Abs
UV-Vis Scan Rate (nm/min)         600.000
UV-Vis Data Interval (nm)         1.000
UV-Vis Ave. Time (sec)            0.100
UV-Vis SBW (nm)                   2.0
Beam Mode                         Double
Signal-to-noise Mode              Off
UV Source                         On
Vis Source                        On
Source Changeover (nm)            400.00
Baseline Correction               On
Baseline Type                     Baseline correction
Baseline File Name                C:\Users\ISIS\Desktop\Hermans UVVIS Data\Michi\20210107_100mM_allions\Lu.BSW
Baseline Std Ref File Name
Cycle Mode                        Off
Accessory                         Cell changer
Temperature (C)                  25.07
Comments
Method Log     :
Method Name    : C:\Users\ISIS\Desktop\Hermans UVVIS Data\Michi\methods\concentration25C.MSW
Date/Time stamp: 12/2/2020 1:13:26 PM
Method Modifications:
X Start nm Changed: 12/2/2020 1:12:58 PM, Old: 800.00, New: 600.00
X Stop nm Changed: 12/2/2020 1:12:58 PM, Old: 200.00, New: 250.00
Y Max Abs Changed: 12/2/2020 1:12:58 PM, Old:     1.00, New:     3.00
Source changeover Changed: 12/2/2020 1:12:58 PM, Old:   350.00, New:   400.00
Baseline Correction Changed: 12/2/2020 1:12:58 PM, Old:0, New:1
Cell Changer Changed: 12/2/2020 1:12:58 PM, Old:OFF, New:ON
Cell2 Changed: 12/2/2020 1:12:58 PM, Old:ON, New:OFF
Cell3 Changed: 12/2/2020 1:12:58 PM, Old:ON, New:OFF
Cell4 Changed: 12/2/2020 1:12:58 PM, Old:ON, New:OFF
Cell5 Changed: 12/2/2020 1:12:58 PM, Old:ON, New:OFF
Cell6 Changed: 12/2/2020 1:12:58 PM, Old:ON, New:OFF
Auto Temp Setting Changed: 12/2/2020 1:12:58 PM, Old:0, New:1
Saved as C:\Users\ISIS\Desktop\Hermans UVVIS Data\Michi\methods\concentration25C.MSWOpened C:\Users\ISIS\Desktop\Hermans UVVIS Data\Michi\methods\concentration25C.MSW
Saved as C:\Users\ISIS\Desktop\Hermans UVVIS Data\Michi\20210107_100mM_allions\Tb1.BSWSaved as C:\Users\ISIS\Desktop\Hermans UVVIS Data\Michi\20210107_100mM_allions\Tb2.BSWSaved as C:\Users\ISIS\Desktop\Hermans UVVIS Data\Michi\20210107_100mM_allions\Tb3.BSWSaved as C:\Users\ISIS\Desktop\Hermans UVVIS Data\Michi\20210107_100mM_allions\Er.BSWSaved as C:\Users\ISIS\Desktop\Hermans UVVIS Data\Michi\20210107_100mM_allions\Gd.BSWSaved as C:\Users\ISIS\Desktop\Hermans UVVIS Data\Michi\20210107_100mM_allions\Lu.BSWSaved as C:\Users\ISIS\Desktop\Hermans UVVIS Data\Michi\20210107_100mM_allions\La.BSW
End Method Modifications
<Current Block Temp> , 25.02
<Current Cell> , 1
<SBW (nm)> , 2.00
<Energy> , 167.00
<Current Wavelength> , 250.00

Y,
Y
Collection Time: 1/7/2021 5:26:56 PM
Operator Name  :
Scan Software Version: 4.20(470)
Parameter List :
Instrument                        Cary 300
Instrument Version                12.00
Start (nm)                        600.00
Stop (nm)                         250.00
X Mode                            Nanometers
Y Mode                            Abs
UV-Vis Scan Rate (nm/min)         600.000
UV-Vis Data Interval (nm)         1.000
UV-Vis Ave. Time (sec)            0.100
UV-Vis SBW (nm)                   2.0
Beam Mode                         Double
Signal-to-noise Mode              Off
UV Source                         On
Vis Source                        On
Source Changeover (nm)            400.00
Baseline Correction               On
Baseline Type                     Baseline correction
Baseline File Name                C:\Users\ISIS\Desktop\Hermans UVVIS Data\Michi\20210107_100mM_allions\La.BSW
Baseline Std Ref File Name
Cycle Mode                        Off
Accessory                         Cell changer
Temperature (C)                  25.02
Comments
Method Log     :
Method Name    : C:\Users\ISIS\Desktop\Hermans UVVIS Data\Michi\methods\concentration25C.MSW
Date/Time stamp: 12/2/2020 1:13:26 PM
Method Modifications:
X Start nm Changed: 12/2/2020 1:12:58 PM, Old: 800.00, New: 600.00
X Stop nm Changed: 12/2/2020 1:12:58 PM, Old: 200.00, New: 250.00
Y Max Abs Changed: 12/2/2020 1:12:58 PM, Old:     1.00, New:     3.00
Source changeover Changed: 12/2/2020 1:12:58 PM, Old:   350.00, New:   400.00
Baseline Correction Changed: 12/2/2020 1:12:58 PM, Old:0, New:1
Cell Changer Changed: 12/2/2020 1:12:58 PM, Old:OFF, New:ON
Cell2 Changed: 12/2/2020 1:12:58 PM, Old:ON, New:OFF
Cell3 Changed: 12/2/2020 1:12:58 PM, Old:ON, New:OFF
Cell4 Changed: 12/2/2020 1:12:58 PM, Old:ON, New:OFF
Cell5 Changed: 12/2/2020 1:12:58 PM, Old:ON, New:OFF
Cell6 Changed: 12/2/2020 1:12:58 PM, Old:ON, New:OFF
Auto Temp Setting Changed: 12/2/2020 1:12:58 PM, Old:0, New:1
Saved as C:\Users\ISIS\Desktop\Hermans UVVIS Data\Michi\methods\concentration25C.MSWOpened C:\Users\ISIS\Desktop\Hermans UVVIS Data\Michi\methods\concentration25C.MSW
Saved as C:\Users\ISIS\Desktop\Hermans UVVIS Data\Michi\20210107_100mM_allions\Tb1.BSWSaved as C:\Users\ISIS\Desktop\Hermans UVVIS Data\Michi\20210107_100mM_allions\Tb2.BSWSaved as C:\Users\ISIS\Desktop\Hermans UVVIS Data\Michi\20210107_100mM_allions\Tb3.BSWSaved as C:\Users\ISIS\Desktop\Hermans UVVIS Data\Michi\20210107_100mM_allions\Er.BSWSaved as C:\Users\ISIS\Desktop\Hermans UVVIS Data\Michi\20210107_100mM_allions\Gd.BSWSaved as C:\Users\ISIS\Desktop\Hermans UVVIS Data\Michi\20210107_100mM_allions\Lu.BSWSaved as C:\Users\ISIS\Desktop\Hermans UVVIS Data\Michi\20210107_100mM_allions\La.BSWSaved as C:\Users\ISIS\Desktop\Hermans UVVIS Data\Michi\20210107_100mM_allions\Y.BSW
End Method Modifications
<Current Block Temp> , 25.02
<Current Cell> , 1
<SBW (nm)> , 2.00
<Energy> , 167.00
<Current Wavelength> , 250.00

Dy,
Dy
Collection Time: 1/7/2021 5:33:10 PM
Operator Name  :
Scan Software Version: 4.20(470)
Parameter List :
Instrument                        Cary 300
Instrument Version                12.00
Start (nm)                        600.00
Stop (nm)                         250.00
X Mode                            Nanometers
Y Mode                            Abs
UV-Vis Scan Rate (nm/min)         600.000
UV-Vis Data Interval (nm)         1.000
UV-Vis Ave. Time (sec)            0.100
UV-Vis SBW (nm)                   2.0
Beam Mode                         Double
Signal-to-noise Mode              Off
UV Source                         On
Vis Source                        On
Source Changeover (nm)            400.00
Baseline Correction               On
Baseline Type                     Baseline correction
Baseline File Name                C:\Users\ISIS\Desktop\Hermans UVVIS Data\Michi\20210107_100mM_allions\Y.BSW
Baseline Std Ref File Name
Cycle Mode                        Off
Accessory                         Cell changer
Temperature (C)                  25.02
Comments
Method Log     :
Method Name    : C:\Users\ISIS\Desktop\Hermans UVVIS Data\Michi\methods\concentration25C.MSW
Date/Time stamp: 12/2/2020 1:13:26 PM
Method Modifications:
X Start nm Changed: 12/2/2020 1:12:58 PM, Old: 800.00, New: 600.00
X Stop nm Changed: 12/2/2020 1:12:58 PM, Old: 200.00, New: 250.00
Y Max Abs Changed: 12/2/2020 1:12:58 PM, Old:     1.00, New:     3.00
Source changeover Changed: 12/2/2020 1:12:58 PM, Old:   350.00, New:   400.00
Baseline Correction Changed: 12/2/2020 1:12:58 PM, Old:0, New:1
Cell Changer Changed: 12/2/2020 1:12:58 PM, Old:OFF, New:ON
Cell2 Changed: 12/2/2020 1:12:58 PM, Old:ON, New:OFF
Cell3 Changed: 12/2/2020 1:12:58 PM, Old:ON, New:OFF
Cell4 Changed: 12/2/2020 1:12:58 PM, Old:ON, New:OFF
Cell5 Changed: 12/2/2020 1:12:58 PM, Old:ON, New:OFF
Cell6 Changed: 12/2/2020 1:12:58 PM, Old:ON, New:OFF
Auto Temp Setting Changed: 12/2/2020 1:12:58 PM, Old:0, New:1
Saved as C:\Users\ISIS\Desktop\Hermans UVVIS Data\Michi\methods\concentration25C.MSWOpened C:\Users\ISIS\Desktop\Hermans UVVIS Data\Michi\methods\concentration25C.MSW
Saved as C:\Users\ISIS\Desktop\Hermans UVVIS Data\Michi\20210107_100mM_allions\Tb1.BSWSaved as C:\Users\ISIS\Desktop\Hermans UVVIS Data\Michi\20210107_100mM_allions\Tb2.BSWSaved as C:\Users\ISIS\Desktop\Hermans UVVIS Data\Michi\20210107_100mM_allions\Tb3.BSWSaved as C:\Users\ISIS\Desktop\Hermans UVVIS Data\Michi\20210107_100mM_allions\Er.BSWSaved as C:\Users\ISIS\Desktop\Hermans UVVIS Data\Michi\20210107_100mM_allions\Gd.BSWSaved as C:\Users\ISIS\Desktop\Hermans UVVIS Data\Michi\20210107_100mM_allions\Lu.BSWSaved as C:\Users\ISIS\Desktop\Hermans UVVIS Data\Michi\20210107_100mM_allions\La.BSWSaved as C:\Users\ISIS\Desktop\Hermans UVVIS Data\Michi\20210107_100mM_allions\Y.BSWSaved as C:\Users\ISIS\Desktop\Hermans UVVIS Data\Michi\20210107_100mM_allions\Dy.BSW
End Method Modifications
<Current Block Temp> , 25.07
<Current Cell> , 1
<SBW (nm)> , 2.00
<Energy> , 167.00
<Current Wavelength> , 254.67

Dy,
Dy
Collection Time: 1/7/2021 5:35:24 PM
Operator Name  :
Scan Software Version: 4.20(470)
Parameter List :
Instrument                        Cary 300
Instrument Version                12.00
Start (nm)                        600.00
Stop (nm)                         250.00
X Mode                            Nanometers
Y Mode                            Abs
UV-Vis Scan Rate (nm/min)         600.000
UV-Vis Data Interval (nm)         1.000
UV-Vis Ave. Time (sec)            0.100
UV-Vis SBW (nm)                   2.0
Beam Mode                         Double
Signal-to-noise Mode              Off
UV Source                         On
Vis Source                        On
Source Changeover (nm)            400.00
Baseline Correction               On
Baseline Type                     Baseline correction
Baseline File Name                C:\Users\ISIS\Desktop\Hermans UVVIS Data\Michi\20210107_100mM_allions\Dy.BSW
Baseline Std Ref File Name
Cycle Mode                        Off
Accessory                         Cell changer
Temperature (C)                  25.07
Comments
Method Log     :
Method Name    : C:\Users\ISIS\Desktop\Hermans UVVIS Data\Michi\methods\concentration25C.MSW
Date/Time stamp: 12/2/2020 1:13:26 PM
Method Modifications:
X Start nm Changed: 12/2/2020 1:12:58 PM, Old: 800.00, New: 600.00
X Stop nm Changed: 12/2/2020 1:12:58 PM, Old: 200.00, New: 250.00
Y Max Abs Changed: 12/2/2020 1:12:58 PM, Old:     1.00, New:     3.00
Source changeover Changed: 12/2/2020 1:12:58 PM, Old:   350.00, New:   400.00
Baseline Correction Changed: 12/2/2020 1:12:58 PM, Old:0, New:1
Cell Changer Changed: 12/2/2020 1:12:58 PM, Old:OFF, New:ON
Cell2 Changed: 12/2/2020 1:12:58 PM, Old:ON, New:OFF
Cell3 Changed: 12/2/2020 1:12:58 PM, Old:ON, New:OFF
Cell4 Changed: 12/2/2020 1:12:58 PM, Old:ON, New:OFF
Cell5 Changed: 12/2/2020 1:12:58 PM, Old:ON, New:OFF
Cell6 Changed: 12/2/2020 1:12:58 PM, Old:ON, New:OFF
Auto Temp Setting Changed: 12/2/2020 1:12:58 PM, Old:0, New:1
Saved as C:\Users\ISIS\Desktop\Hermans UVVIS Data\Michi\methods\concentration25C.MSWOpened C:\Users\ISIS\Desktop\Hermans UVVIS Data\Michi\methods\concentration25C.MSW
Saved as C:\Users\ISIS\Desktop\Hermans UVVIS Data\Michi\20210107_100mM_allions\Tb1.BSWSaved as C:\Users\ISIS\Desktop\Hermans UVVIS Data\Michi\20210107_100mM_allions\Tb2.BSWSaved as C:\Users\ISIS\Desktop\Hermans UVVIS Data\Michi\20210107_100mM_allions\Tb3.BSWSaved as C:\Users\ISIS\Desktop\Hermans UVVIS Data\Michi\20210107_100mM_allions\Er.BSWSaved as C:\Users\ISIS\Desktop\Hermans UVVIS Data\Michi\20210107_100mM_allions\Gd.BSWSaved as C:\Users\ISIS\Desktop\Hermans UVVIS Data\Michi\20210107_100mM_allions\Lu.BSWSaved as C:\Users\ISIS\Desktop\Hermans UVVIS Data\Michi\20210107_100mM_allions\La.BSWSaved as C:\Users\ISIS\Desktop\Hermans UVVIS Data\Michi\20210107_100mM_allions\Y.BSWSaved as C:\Users\ISIS\Desktop\Hermans UVVIS Data\Michi\20210107_100mM_allions\Dy.BSWSaved as C:\Users\ISIS\Desktop\Hermans UVVIS Data\Michi\20210107_100mM_allions\Dy1.BSW
End Method Modifications
<Current Block Temp> , 25.02
<Current Cell> , 1
<SBW (nm)> , 2.00
<Energy> , 167.00
<Current Wavelength> , 258.00

Tb_new,
Tb_new
Collection Time: 1/7/2021 5:55:22 PM
Operator Name  :
Scan Software Version: 4.20(470)
Parameter List :
Instrument                        Cary 300
Instrument Version                12.00
Start (nm)                        600.00
Stop (nm)                         250.00
X Mode                            Nanometers
Y Mode                            Abs
UV-Vis Scan Rate (nm/min)         600.000
UV-Vis Data Interval (nm)         1.000
UV-Vis Ave. Time (sec)            0.100
UV-Vis SBW (nm)                   2.0
Beam Mode                         Double
Signal-to-noise Mode              Off
UV Source                         On
Vis Source                        On
Source Changeover (nm)            400.00
Baseline Correction               On
Baseline Type                     Baseline correction
Baseline File Name                C:\Users\ISIS\Desktop\Hermans UVVIS Data\Michi\20210107_100mM_allions\Dy1.BSW
Baseline Std Ref File Name
Cycle Mode                        Off
Accessory                         Cell changer
Temperature (C)                  25.02
Comments
Method Log     :
Method Name    : C:\Users\ISIS\Desktop\Hermans UVVIS Data\Michi\methods\concentration25C.MSW
Date/Time stamp: 12/2/2020 1:13:26 PM
Method Modifications:
X Start nm Changed: 12/2/2020 1:12:58 PM, Old: 800.00, New: 600.00
X Stop nm Changed: 12/2/2020 1:12:58 PM, Old: 200.00, New: 250.00
Y Max Abs Changed: 12/2/2020 1:12:58 PM, Old:     1.00, New:     3.00
Source changeover Changed: 12/2/2020 1:12:58 PM, Old:   350.00, New:   400.00
Baseline Correction Changed: 12/2/2020 1:12:58 PM, Old:0, New:1
Cell Changer Changed: 12/2/2020 1:12:58 PM, Old:OFF, New:ON
Cell2 Changed: 12/2/2020 1:12:58 PM, Old:ON, New:OFF
Cell3 Changed: 12/2/2020 1:12:58 PM, Old:ON, New:OFF
Cell4 Changed: 12/2/2020 1:12:58 PM, Old:ON, New:OFF
Cell5 Changed: 12/2/2020 1:12:58 PM, Old:ON, New:OFF
Cell6 Changed: 12/2/2020 1:12:58 PM, Old:ON, New:OFF
Auto Temp Setting Changed: 12/2/2020 1:12:58 PM, Old:0, New:1
Saved as C:\Users\ISIS\Desktop\Hermans UVVIS Data\Michi\methods\concentration25C.MSWOpened C:\Users\ISIS\Desktop\Hermans UVVIS Data\Michi\methods\concentration25C.MSW
Saved as C:\Users\ISIS\Desktop\Hermans UVVIS Data\Michi\20210107_100mM_allions\Tb1.BSWSaved as C:\Users\ISIS\Desktop\Hermans UVVIS Data\Michi\20210107_100mM_allions\Tb2.BSWSaved as C:\Users\ISIS\Desktop\Hermans UVVIS Data\Michi\20210107_100mM_allions\Tb3.BSWSaved as C:\Users\ISIS\Desktop\Hermans UVVIS Data\Michi\20210107_100mM_allions\Er.BSWSaved as C:\Users\ISIS\Desktop\Hermans UVVIS Data\Michi\20210107_100mM_allions\Gd.BSWSaved as C:\Users\ISIS\Desktop\Hermans UVVIS Data\Michi\20210107_100mM_allions\Lu.BSWSaved as C:\Users\ISIS\Desktop\Hermans UVVIS Data\Michi\20210107_100mM_allions\La.BSWSaved as C:\Users\ISIS\Desktop\Hermans UVVIS Data\Michi\20210107_100mM_allions\Y.BSWSaved as C:\Users\ISIS\Desktop\Hermans UVVIS Data\Michi\20210107_100mM_allions\Dy.BSWSaved as C:\Users\ISIS\Desktop\Hermans UVVIS Data\Michi\20210107_100mM_allions\Dy1.BSWSaved as C:\Users\ISIS\Desktop\Hermans UVVIS Data\Michi\20210107_100mM_allions\Tb_new.BSW
End Method Modifications
<Current Block Temp> , 25.02
<Current Cell> , 1
<SBW (nm)> , 2.00
<Energy> , 167.00
<Current Wavelength> , 258.00

Tb_new1,
Tb_new1
Collection Time: 1/7/2021 5:58:06 PM
Operator Name  :
Scan Software Version: 4.20(470)
Parameter List :
Instrument                        Cary 300
Instrument Version                12.00
Start (nm)                        600.00
Stop (nm)                         250.00
X Mode                            Nanometers
Y Mode                            Abs
UV-Vis Scan Rate (nm/min)         600.000
UV-Vis Data Interval (nm)         1.000
UV-Vis Ave. Time (sec)            0.100
UV-Vis SBW (nm)                   2.0
Beam Mode                         Double
Signal-to-noise Mode              Off
UV Source                         On
Vis Source                        On
Source Changeover (nm)            400.00
Baseline Correction               On
Baseline Type                     Baseline correction
Baseline File Name                C:\Users\ISIS\Desktop\Hermans UVVIS Data\Michi\20210107_100mM_allions\Tb_new.BSW
Baseline Std Ref File Name
Cycle Mode                        Off
Accessory                         Cell changer
Temperature (C)                  25.07
Comments
Method Log     :
Method Name    : C:\Users\ISIS\Desktop\Hermans UVVIS Data\Michi\methods\concentration25C.MSW
Date/Time stamp: 12/2/2020 1:13:26 PM
Method Modifications:
X Start nm Changed: 12/2/2020 1:12:58 PM, Old: 800.00, New: 600.00
X Stop nm Changed: 12/2/2020 1:12:58 PM, Old: 200.00, New: 250.00
Y Max Abs Changed: 12/2/2020 1:12:58 PM, Old:     1.00, New:     3.00
Source changeover Changed: 12/2/2020 1:12:58 PM, Old:   350.00, New:   400.00
Baseline Correction Changed: 12/2/2020 1:12:58 PM, Old:0, New:1
Cell Changer Changed: 12/2/2020 1:12:58 PM, Old:OFF, New:ON
Cell2 Changed: 12/2/2020 1:12:58 PM, Old:ON, New:OFF
Cell3 Changed: 12/2/2020 1:12:58 PM, Old:ON, New:OFF
Cell4 Changed: 12/2/2020 1:12:58 PM, Old:ON, New:OFF
Cell5 Changed: 12/2/2020 1:12:58 PM, Old:ON, New:OFF
Cell6 Changed: 12/2/2020 1:12:58 PM, Old:ON, New:OFF
Auto Temp Setting Changed: 12/2/2020 1:12:58 PM, Old:0, New:1
Saved as C:\Users\ISIS\Desktop\Hermans UVVIS Data\Michi\methods\concentration25C.MSWOpened C:\Users\ISIS\Desktop\Hermans UVVIS Data\Michi\methods\concentration25C.MSW
Saved as C:\Users\ISIS\Desktop\Hermans UVVIS Data\Michi\20210107_100mM_allions\Tb1.BSWSaved as C:\Users\ISIS\Desktop\Hermans UVVIS Data\Michi\20210107_100mM_allions\Tb2.BSWSaved as C:\Users\ISIS\Desktop\Hermans UVVIS Data\Michi\20210107_100mM_allions\Tb3.BSWSaved as C:\Users\ISIS\Desktop\Hermans UVVIS Data\Michi\20210107_100mM_allions\Er.BSWSaved as C:\Users\ISIS\Desktop\Hermans UVVIS Data\Michi\20210107_100mM_allions\Gd.BSWSaved as C:\Users\ISIS\Desktop\Hermans UVVIS Data\Michi\20210107_100mM_allions\Lu.BSWSaved as C:\Users\ISIS\Desktop\Hermans UVVIS Data\Michi\20210107_100mM_allions\La.BSWSaved as C:\Users\ISIS\Desktop\Hermans UVVIS Data\Michi\20210107_100mM_allions\Y.BSWSaved as C:\Users\ISIS\Desktop\Hermans UVVIS Data\Michi\20210107_100mM_allions\Dy.BSWSaved as C:\Users\ISIS\Desktop\Hermans UVVIS Data\Michi\20210107_100mM_allions\Dy1.BSWSaved as C:\Users\ISIS\Desktop\Hermans UVVIS Data\Michi\20210107_100mM_allions\Tb_new.BSWSaved as C:\Users\ISIS\Desktop\Hermans UVVIS Data\Michi\20210107_100mM_allions\Tb_new1.BSW
End Method Modifications
<Current Block Temp> , 24.97
<Current Cell> , 1
<SBW (nm)> , 2.00
<Energy> , 167.00
<Current Wavelength> , 250.00

